Date	2021年06月15日火曜日 05時15分30秒
Spectrometers	USB2+H05879
ダーク	使用
リファレンス	使用
積分時間[msec]	10
平均回数	280
ｽﾑｰｼﾞﾝｸﾞ	10
Electrical Dark	USE
ピクセル数	2048
計測モード	吸光度
保存開始波長[nm]	190.664
保存終了波長[nm]	884.878
保存ﾋﾟｯﾁ波長[nm]	全波長

>>>>>>>>>> Data Start <<<<<<<<<<<<
190.664	0.000000
191.040	0.000000
191.415	0.000000
191.791	-2.530863
192.166	-0.729721
192.542	-0.766762
192.917	0.000000
193.293	-0.508978
193.668	-0.547665
194.044	-0.982948
194.419	0.000000
194.794	-1.407581
195.170	-1.327282
195.545	-1.238485
195.920	-1.108316
196.296	-0.978424
196.671	-0.818623
197.046	-0.664412
197.421	-0.607154
197.796	-0.601661
198.171	-0.571258
198.546	-0.517744
198.922	-0.463148
199.297	-0.434979
199.672	-0.410528
200.047	-0.386968
200.422	-0.354612
200.796	-0.347592
201.171	-0.333311
201.546	-0.331353
201.921	-0.316170
202.296	-0.305188
202.671	-0.279309
203.045	-0.257208
203.420	-0.246401
203.795	-0.228004
204.170	-0.221029
204.544	-0.215782
204.919	-0.209939
205.294	-0.206570
205.668	-0.191134
206.043	-0.176157
206.417	-0.188494
206.792	-0.183853
207.166	-0.178453
207.541	-0.173601
207.915	-0.174225
208.289	-0.160961
208.664	-0.160600
209.038	-0.157713
209.412	-0.143133
209.787	-0.129007
210.161	-0.119941
210.535	-0.124568
210.909	-0.110407
211.284	-0.102543
211.658	-0.113312
212.032	-0.119526
212.406	-0.130555
212.780	-0.138217
213.154	-0.133165
213.528	-0.128953
213.902	-0.123146
214.276	-0.106801
214.650	-0.104536
215.024	-0.105071
215.398	-0.101115
215.772	-0.094245
216.145	-0.097332
216.519	-0.082761
216.893	-0.078585
217.267	-0.082192
217.640	-0.093923
218.014	-0.081669
218.388	-0.080545
218.761	-0.087707
219.135	-0.080761
219.508	-0.074072
219.882	-0.078014
220.256	-0.072607
220.629	-0.056049
221.003	-0.060649
221.376	-0.061330
221.749	-0.068685
222.123	-0.074147
222.496	-0.076924
222.869	-0.073652
223.243	-0.067045
223.616	-0.071851
223.989	-0.071048
224.362	-0.067887
224.736	-0.064294
225.109	-0.063435
225.482	-0.052409
225.855	-0.057093
226.228	-0.053914
226.601	-0.047140
226.974	-0.044723
227.347	-0.034875
227.720	-0.030229
228.093	-0.028131
228.466	-0.035885
228.839	-0.035740
229.212	-0.038421
229.585	-0.047302
229.957	-0.048304
230.330	-0.044914
230.703	-0.037029
231.076	-0.041559
231.448	-0.032143
231.821	-0.036736
232.194	-0.043507
232.566	-0.048797
232.939	-0.055996
233.311	-0.062456
233.684	-0.061217
234.056	-0.063006
234.429	-0.066561
234.801	-0.065503
235.174	-0.063295
235.546	-0.061858
235.918	-0.060147
236.291	-0.056398
236.663	-0.057321
237.035	-0.053630
237.408	-0.036988
237.780	-0.030784
238.152	-0.031202
238.524	-0.043835
238.896	-0.040428
239.268	-0.042682
239.641	-0.041824
240.013	-0.031932
240.385	-0.022800
240.757	-0.014530
241.129	-0.011753
241.500	-0.013724
241.872	-0.013488
242.244	-0.009597
242.616	-0.003179
242.988	-0.005160
243.360	-0.000630
243.731	0.004273
244.103	0.002715
244.475	0.003818
244.847	0.007709
245.218	0.009319
245.590	0.015292
245.961	0.019076
246.333	0.027274
246.705	0.025144
247.076	0.033719
247.448	0.041555
247.819	0.042946
248.190	0.040597
248.562	0.033058
248.933	0.028224
249.305	0.031647
249.676	0.039580
250.047	0.034272
250.418	0.026811
250.790	0.028028
251.161	0.030359
251.532	0.030274
251.903	0.028467
252.274	0.035983
252.645	0.039696
253.016	0.036952
253.387	0.027133
253.758	0.027336
254.129	0.026569
254.500	0.038063
254.871	0.034729
255.242	0.033954
255.613	0.031565
255.984	0.034636
256.355	0.042523
256.725	0.054956
257.096	0.060912
257.467	0.058845
257.838	0.067076
258.208	0.071876
258.579	0.076616
258.949	0.080281
259.320	0.076166
259.690	0.076432
260.061	0.080813
260.431	0.080731
260.802	0.083460
261.172	0.093303
261.543	0.100798
261.913	0.102849
262.283	0.090651
262.654	0.086011
263.024	0.076864
263.394	0.070471
263.764	0.064245
264.135	0.061940
264.505	0.055803
264.875	0.054493
265.245	0.055162
265.615	0.053948
265.985	0.053494
266.355	0.051043
266.725	0.045659
267.095	0.050421
267.465	0.060869
267.835	0.051444
268.205	0.046189
268.575	0.048704
268.944	0.050680
269.314	0.045419
269.684	0.048215
270.054	0.043382
270.423	0.047962
270.793	0.057721
271.163	0.060411
271.532	0.058355
271.902	0.071184
272.271	0.078591
272.641	0.075053
273.010	0.073577
273.380	0.074337
273.749	0.077080
274.119	0.078193
274.488	0.082192
274.857	0.080644
275.227	0.073161
275.596	0.075974
275.965	0.085835
276.335	0.085791
276.704	0.085888
277.073	0.086950
277.442	0.093482
277.811	0.104563
278.180	0.108875
278.549	0.112182
278.918	0.113397
279.287	0.118956
279.656	0.119756
280.025	0.121336
280.394	0.120714
280.763	0.129554
281.132	0.137745
281.501	0.135389
281.869	0.138356
282.238	0.143102
282.607	0.144136
282.976	0.148704
283.344	0.156376
283.713	0.148472
284.081	0.148546
284.450	0.154863
284.819	0.154421
285.187	0.150028
285.556	0.147709
285.924	0.141186
286.292	0.128459
286.661	0.126564
287.029	0.120707
287.398	0.116243
287.766	0.110374
288.134	0.117703
288.502	0.110685
288.871	0.108671
289.239	0.111401
289.607	0.108383
289.975	0.101800
290.343	0.106676
290.711	0.103060
291.079	0.102636
291.447	0.105539
291.815	0.106232
292.183	0.104276
292.551	0.104705
292.919	0.107250
293.287	0.103224
293.655	0.112538
294.022	0.117334
294.390	0.125554
294.758	0.131437
295.126	0.131286
295.493	0.134431
295.861	0.133182
296.229	0.130482
296.596	0.132234
296.964	0.134760
297.331	0.138039
297.699	0.145634
298.066	0.148698
298.434	0.153444
298.801	0.150751
299.168	0.153422
299.536	0.161015
299.903	0.161196
300.270	0.162846
300.638	0.166165
301.005	0.177096
301.372	0.176434
301.739	0.186430
302.106	0.192204
302.473	0.203774
302.840	0.214965
303.207	0.232091
303.574	0.248050
303.941	0.265466
304.308	0.275360
304.675	0.290960
305.042	0.304582
305.409	0.318917
305.776	0.331035
306.143	0.352387
306.509	0.377215
306.876	0.404594
307.243	0.424428
307.610	0.449121
307.976	0.472931
308.343	0.501708
308.709	0.530507
309.076	0.564175
309.442	0.590840
309.809	0.614940
310.175	0.647374
310.542	0.673628
310.908	0.699189
311.275	0.725418
311.641	0.756495
312.007	0.785822
312.373	0.810662
312.740	0.841912
313.106	0.875331
313.472	0.908104
313.838	0.937955
314.204	0.961383
314.570	0.977177
314.936	0.992571
315.302	1.011883
315.668	1.033977
316.034	1.055236
316.400	1.087085
316.766	1.107928
317.132	1.142111
317.498	1.164422
317.864	1.174871
318.230	1.195568
318.595	1.212185
318.961	1.225465
319.327	1.248799
319.692	1.259886
320.058	1.269907
320.424	1.282449
320.789	1.292716
321.155	1.307223
321.520	1.318478
321.886	1.332734
322.251	1.349248
322.616	1.366297
322.982	1.382776
323.347	1.395572
323.712	1.408620
324.078	1.408654
324.443	1.417553
324.808	1.417177
325.173	1.426874
325.539	1.437749
325.904	1.443451
326.269	1.448821
326.634	1.457697
326.999	1.461863
327.364	1.471416
327.729	1.481923
328.094	1.487833
328.459	1.493050
328.823	1.498251
329.188	1.505676
329.553	1.509443
329.918	1.514154
330.283	1.520080
330.647	1.523760
331.012	1.526422
331.377	1.529991
331.741	1.531811
332.106	1.535918
332.470	1.541032
332.835	1.542108
333.199	1.542943
333.564	1.546964
333.928	1.552316
334.293	1.554992
334.657	1.555156
335.021	1.557418
335.386	1.557683
335.750	1.558478
336.114	1.560506
336.478	1.561902
336.843	1.561581
337.207	1.563106
337.571	1.566004
337.935	1.566922
338.299	1.565781
338.663	1.566524
339.027	1.567102
339.391	1.569257
339.755	1.568738
340.119	1.567567
340.483	1.567444
340.846	1.570722
341.210	1.570750
341.574	1.569988
341.938	1.569961
342.301	1.571447
342.665	1.570671
343.029	1.570532
343.392	1.571843
343.756	1.571751
344.119	1.571620
344.483	1.571834
344.846	1.571792
345.210	1.571771
345.573	1.570045
345.937	1.570184
346.300	1.570295
346.663	1.568005
347.027	1.569354
347.390	1.568252
347.753	1.568437
348.116	1.568647
348.479	1.568007
348.843	1.566577
349.206	1.566130
349.569	1.564446
349.932	1.563167
350.295	1.563505
350.658	1.563842
351.021	1.564204
351.383	1.564012
351.746	1.563219
352.109	1.562403
352.472	1.562118
352.835	1.560651
353.197	1.562209
353.560	1.563080
353.923	1.561954
354.285	1.563272
354.648	1.563361
355.011	1.563306
355.373	1.563928
355.736	1.563655
356.098	1.562636
356.461	1.564707
356.823	1.564381
357.185	1.565838
357.548	1.566258
357.910	1.565382
358.272	1.564725
358.635	1.563221
358.997	1.563046
359.359	1.564034
359.721	1.563749
360.083	1.564335
360.445	1.564215
360.807	1.563781
361.169	1.562862
361.531	1.564751
361.893	1.564156
362.255	1.564512
362.617	1.565803
362.979	1.565883
363.341	1.564915
363.703	1.565086
364.064	1.564317
364.426	1.564950
364.788	1.564181
365.149	1.564035
365.511	1.564407
365.873	1.565137
366.234	1.566000
366.596	1.565896
366.957	1.565370
367.319	1.565555
367.680	1.565013
368.042	1.565307
368.403	1.565551
368.764	1.566260
369.126	1.565468
369.487	1.566555
369.848	1.565585
370.209	1.565453
370.570	1.565580
370.931	1.567341
371.293	1.567512
371.654	1.567937
372.015	1.568760
372.376	1.569783
372.737	1.570311
373.098	1.571129
373.458	1.571381
373.819	1.572439
374.180	1.575130
374.541	1.576312
374.902	1.577477
375.263	1.577969
375.623	1.578525
375.984	1.579887
376.345	1.580706
376.705	1.582082
377.066	1.583077
377.426	1.583147
377.787	1.583267
378.147	1.584401
378.508	1.584627
378.868	1.586124
379.228	1.586009
379.589	1.585354
379.949	1.585948
380.309	1.587579
380.670	1.587497
381.030	1.588240
381.390	1.587828
381.750	1.586061
382.110	1.586019
382.470	1.587029
382.830	1.589242
383.190	1.590106
383.550	1.590198
383.910	1.591435
384.270	1.592484
384.630	1.593386
384.990	1.594888
385.350	1.595714
385.709	1.596272
386.069	1.597630
386.429	1.597530
386.788	1.599128
387.148	1.601217
387.508	1.602764
387.867	1.602925
388.227	1.604380
388.586	1.605150
388.946	1.606796
389.305	1.608530
389.665	1.610514
390.024	1.611412
390.383	1.611438
390.743	1.612054
391.102	1.612653
391.461	1.612882
391.820	1.613096
392.179	1.612712
392.539	1.614218
392.898	1.615431
393.257	1.616215
393.616	1.618310
393.975	1.619830
394.334	1.620956
394.693	1.621330
395.051	1.622052
395.410	1.622933
395.769	1.623922
396.128	1.625672
396.487	1.626806
396.845	1.627798
397.204	1.627565
397.563	1.627611
397.921	1.627700
398.280	1.628433
398.638	1.628382
398.997	1.628913
399.355	1.629541
399.714	1.630833
400.072	1.630541
400.431	1.630862
400.789	1.630433
401.147	1.630181
401.506	1.630069
401.864	1.630046
402.222	1.630157
402.580	1.629365
402.938	1.630213
403.297	1.630271
403.655	1.629901
404.013	1.629456
404.371	1.629590
404.729	1.629705
405.087	1.629831
405.444	1.631159
405.802	1.631111
406.160	1.632417
406.518	1.633284
406.876	1.633568
407.233	1.633847
407.591	1.635270
407.949	1.636033
408.306	1.637031
408.664	1.637318
409.022	1.638336
409.379	1.638753
409.737	1.639185
410.094	1.640080
410.451	1.640296
410.809	1.641149
411.166	1.641075
411.523	1.642061
411.881	1.642556
412.238	1.643071
412.595	1.643633
412.952	1.644026
413.310	1.645417
413.667	1.646079
414.024	1.646644
414.381	1.647560
414.738	1.647536
415.095	1.646752
415.452	1.646723
415.809	1.647040
416.165	1.647446
416.522	1.648032
416.879	1.649249
417.236	1.649960
417.593	1.650303
417.949	1.650889
418.306	1.651600
418.663	1.653669
419.019	1.654516
419.376	1.654500
419.732	1.654552
420.089	1.655762
420.445	1.656307
420.802	1.656695
421.158	1.656501
421.514	1.655837
421.871	1.655161
422.227	1.655531
422.583	1.655850
422.939	1.655761
423.295	1.655913
423.652	1.656020
424.008	1.654980
424.364	1.654845
424.720	1.655049
425.076	1.655689
425.432	1.655771
425.788	1.655622
426.143	1.654641
426.499	1.653552
426.855	1.654750
427.211	1.655611
427.567	1.655548
427.922	1.656144
428.278	1.654181
428.634	1.654392
428.989	1.654366
429.345	1.654832
429.700	1.654703
430.056	1.655526
430.411	1.656458
430.767	1.656294
431.122	1.655826
431.478	1.656098
431.833	1.656267
432.188	1.656311
432.543	1.656691
432.899	1.656348
433.254	1.655803
433.609	1.656062
433.964	1.657064
434.319	1.656501
434.674	1.655039
435.029	1.655135
435.384	1.654238
435.739	1.655451
436.094	1.655747
436.449	1.656382
436.804	1.656648
437.158	1.656610
437.513	1.655680
437.868	1.654681
438.223	1.655595
438.577	1.655092
438.932	1.656326
439.287	1.655634
439.641	1.655490
439.996	1.654166
440.350	1.654191
440.704	1.654390
441.059	1.653343
441.413	1.651847
441.768	1.651471
442.122	1.652458
442.476	1.650782
442.830	1.649278
443.185	1.648597
443.539	1.647045
443.893	1.645701
444.247	1.643754
444.601	1.643361
444.955	1.642112
445.309	1.641180
445.663	1.639422
446.017	1.638582
446.371	1.635778
446.724	1.633703
447.078	1.631165
447.432	1.629959
447.786	1.627089
448.139	1.624286
448.493	1.622563
448.847	1.620643
449.200	1.617880
449.554	1.615058
449.907	1.613594
450.261	1.611238
450.614	1.608792
450.968	1.606190
451.321	1.603806
451.674	1.601836
452.027	1.598011
452.381	1.595590
452.734	1.592893
453.087	1.589847
453.440	1.586547
453.793	1.584179
454.146	1.581410
454.499	1.579069
454.852	1.575756
455.205	1.573389
455.558	1.571319
455.911	1.568381
456.264	1.565297
456.617	1.561902
456.970	1.559097
457.322	1.555832
457.675	1.553773
458.028	1.550931
458.380	1.548079
458.733	1.545301
459.086	1.542874
459.438	1.540442
459.791	1.536903
460.143	1.533376
460.496	1.530373
460.848	1.527447
461.200	1.525046
461.553	1.522046
461.905	1.519884
462.257	1.516784
462.609	1.513903
462.961	1.511356
463.314	1.508130
463.666	1.505359
464.018	1.503074
464.370	1.500382
464.722	1.497568
465.074	1.493615
465.426	1.491133
465.777	1.488609
466.129	1.484953
466.481	1.481792
466.833	1.479494
467.184	1.477339
467.536	1.474674
467.888	1.471773
468.239	1.468418
468.591	1.464339
468.943	1.461086
469.294	1.456669
469.646	1.453304
469.997	1.448995
470.348	1.445022
470.700	1.442012
471.051	1.439194
471.402	1.435762
471.754	1.432385
472.105	1.429447
472.456	1.427459
472.807	1.424277
473.158	1.421797
473.509	1.420008
473.860	1.417193
474.211	1.414260
474.562	1.411687
474.913	1.409057
475.264	1.406223
475.615	1.403878
475.966	1.401789
476.316	1.398777
476.667	1.395951
477.018	1.393573
477.368	1.391393
477.719	1.388758
478.070	1.386073
478.420	1.383418
478.771	1.380888
479.121	1.378501
479.472	1.375809
479.822	1.373137
480.172	1.370663
480.523	1.367790
480.873	1.364784
481.223	1.361525
481.573	1.358586
481.924	1.355750
482.274	1.353063
482.624	1.350719
482.974	1.348615
483.324	1.346600
483.674	1.344964
484.024	1.343388
484.374	1.341604
484.724	1.339718
485.073	1.337925
485.423	1.336159
485.773	1.334351
486.123	1.332486
486.472	1.330510
486.822	1.328760
487.172	1.326879
487.521	1.325022
487.871	1.323419
488.220	1.321543
488.570	1.319726
488.919	1.316944
489.268	1.313967
489.618	1.310603
489.967	1.306703
490.316	1.302108
490.666	1.297402
491.015	1.293136
491.364	1.289247
491.713	1.285755
492.062	1.282636
492.411	1.279787
492.760	1.276897
493.109	1.273885
493.458	1.271327
493.807	1.268669
494.156	1.265872
494.505	1.263066
494.853	1.260276
495.202	1.256961
495.551	1.253975
495.900	1.251078
496.248	1.248379
496.597	1.245245
496.945	1.242552
497.294	1.239800
497.642	1.236924
497.991	1.234004
498.339	1.231048
498.688	1.228273
499.036	1.225626
499.384	1.223038
499.732	1.220195
500.081	1.217423
500.429	1.214708
500.777	1.212034
501.125	1.209298
501.473	1.206665
501.821	1.204100
502.169	1.201370
502.517	1.198844
502.865	1.196311
503.213	1.193581
503.561	1.191067
503.908	1.188576
504.256	1.185870
504.604	1.183272
504.952	1.180804
505.299	1.178236
505.647	1.175838
505.994	1.173269
506.342	1.170528
506.689	1.167784
507.037	1.165057
507.384	1.162278
507.732	1.159741
508.079	1.157058
508.426	1.154610
508.774	1.151975
509.121	1.149415
509.468	1.147115
509.815	1.144947
510.162	1.142339
510.509	1.139798
510.856	1.137258
511.203	1.134974
511.550	1.132598
511.897	1.130059
512.244	1.127835
512.591	1.125378
512.938	1.122972
513.284	1.120572
513.631	1.118180
513.978	1.116039
514.324	1.113878
514.671	1.111771
515.018	1.109492
515.364	1.107298
515.711	1.104983
516.057	1.102669
516.403	1.100573
516.750	1.098457
517.096	1.096161
517.443	1.094242
517.789	1.092298
518.135	1.090263
518.481	1.088152
518.827	1.086035
519.173	1.084124
519.519	1.082055
519.865	1.080092
520.211	1.078060
520.557	1.076080
520.903	1.074156
521.249	1.072135
521.595	1.070108
521.941	1.067944
522.287	1.065697
522.632	1.063440
522.978	1.061412
523.324	1.059541
523.669	1.057423
524.015	1.055138
524.360	1.052940
524.706	1.050911
525.051	1.048938
525.397	1.047025
525.742	1.045090
526.087	1.043325
526.433	1.041304
526.778	1.039549
527.123	1.037895
527.468	1.036060
527.813	1.034247
528.158	1.032456
528.504	1.030353
528.849	1.028303
529.193	1.026482
529.538	1.024665
529.883	1.022654
530.228	1.020487
530.573	1.018543
530.918	1.016402
531.263	1.014528
531.607	1.012660
531.952	1.010629
532.296	1.008654
532.641	1.006688
532.986	1.004540
533.330	1.002288
533.675	1.000467
534.019	0.998185
534.363	0.995934
534.708	0.993787
535.052	0.991638
535.396	0.989553
535.741	0.987700
536.085	0.985621
536.429	0.983156
536.773	0.980987
537.117	0.978759
537.461	0.976520
537.805	0.974027
538.149	0.971538
538.493	0.968955
538.837	0.966406
539.181	0.963905
539.524	0.961301
539.868	0.958670
540.212	0.956119
540.556	0.953598
540.899	0.950790
541.243	0.948204
541.586	0.945431
541.930	0.942727
542.273	0.939973
542.617	0.937055
542.960	0.934084
543.304	0.931101
543.647	0.928193
543.990	0.925035
544.333	0.921827
544.677	0.918713
545.020	0.915635
545.363	0.912595
545.706	0.909385
546.049	0.906301
546.392	0.903181
546.735	0.899938
547.078	0.896671
547.421	0.893208
547.764	0.889856
548.106	0.886388
548.449	0.882641
548.792	0.879075
549.135	0.875358
549.477	0.871717
549.820	0.868105
550.162	0.864348
550.505	0.860599
550.847	0.856906
551.190	0.852937
551.532	0.848853
551.875	0.844504
552.217	0.840025
552.559	0.835681
552.901	0.831487
553.244	0.827162
553.586	0.822944
553.928	0.818928
554.270	0.814994
554.612	0.811107
554.954	0.806985
555.296	0.802871
555.638	0.798723
555.980	0.794261
556.322	0.789604
556.663	0.784718
557.005	0.779693
557.347	0.774888
557.689	0.770037
558.030	0.765272
558.372	0.760448
558.713	0.755677
559.055	0.751052
559.396	0.746349
559.738	0.741417
560.079	0.736434
560.421	0.731609
560.762	0.726834
561.103	0.721970
561.444	0.717166
561.786	0.712427
562.127	0.707847
562.468	0.703032
562.809	0.698302
563.150	0.693362
563.491	0.688364
563.832	0.683097
564.173	0.677798
564.514	0.672153
564.855	0.666526
565.195	0.660700
565.536	0.655019
565.877	0.649347
566.218	0.643780
566.558	0.638355
566.899	0.633148
567.239	0.628200
567.580	0.623485
567.920	0.619085
568.261	0.615013
568.601	0.611128
568.941	0.607463
569.282	0.603801
569.622	0.600268
569.962	0.596667
570.302	0.593111
570.643	0.589638
570.983	0.586296
571.323	0.583061
571.663	0.579913
572.003	0.576720
572.343	0.573584
572.683	0.570273
573.022	0.566799
573.362	0.563202
573.702	0.559524
574.042	0.555934
574.381	0.552348
574.721	0.548905
575.061	0.545542
575.400	0.542364
575.740	0.539251
576.079	0.536185
576.419	0.533008
576.758	0.529699
577.097	0.526267
577.437	0.522692
577.776	0.519106
578.115	0.515533
578.454	0.512128
578.794	0.509024
579.133	0.506241
579.472	0.503623
579.811	0.501194
580.150	0.498823
580.489	0.496365
580.828	0.493778
581.167	0.491062
581.505	0.488382
581.844	0.485662
582.183	0.482951
582.522	0.480284
582.860	0.477712
583.199	0.475230
583.538	0.472869
583.876	0.470556
584.215	0.468242
584.553	0.465889
584.891	0.463496
585.230	0.461081
585.568	0.458566
585.906	0.455990
586.245	0.453443
586.583	0.451048
586.921	0.448845
587.259	0.446842
587.597	0.444922
587.935	0.442934
588.273	0.440800
588.611	0.438421
588.949	0.435876
589.287	0.433298
589.625	0.430684
589.963	0.428172
590.300	0.425711
590.638	0.423384
590.976	0.421060
591.313	0.418717
591.651	0.416450
591.989	0.414203
592.326	0.412078
592.664	0.410123
593.001	0.408251
593.338	0.406496
593.676	0.404856
594.013	0.403254
594.350	0.401640
594.687	0.400079
595.025	0.398633
595.362	0.397147
595.699	0.395573
596.036	0.394001
596.373	0.392390
596.710	0.390747
597.047	0.389039
597.384	0.387355
597.720	0.385651
598.057	0.383989
598.394	0.382363
598.731	0.380718
599.067	0.379095
599.404	0.377460
599.741	0.375918
600.077	0.374402
600.414	0.373019
600.750	0.371735
601.087	0.370523
601.423	0.369264
601.759	0.368008
602.096	0.366679
602.432	0.365404
602.768	0.364093
603.104	0.362814
603.440	0.361484
603.776	0.360227
604.112	0.358975
604.448	0.357755
604.784	0.356637
605.120	0.355489
605.456	0.354386
605.792	0.353279
606.128	0.352164
606.463	0.351097
606.799	0.349906
607.135	0.348757
607.470	0.347612
607.806	0.346455
608.142	0.345300
608.477	0.344215
608.812	0.343133
609.148	0.342096
609.483	0.341034
609.819	0.340012
610.154	0.338884
610.489	0.337804
610.824	0.336740
611.159	0.335716
611.494	0.334706
611.830	0.333683
612.165	0.332826
612.500	0.331943
612.834	0.331091
613.169	0.330234
613.504	0.329329
613.839	0.328457
614.174	0.327596
614.509	0.326695
614.843	0.325808
615.178	0.324936
615.512	0.324136
615.847	0.323321
616.182	0.322549
616.516	0.321807
616.850	0.321067
617.185	0.320387
617.519	0.319660
617.853	0.318900
618.188	0.318019
618.522	0.317110
618.856	0.316189
619.190	0.315227
619.524	0.314284
619.858	0.313361
620.192	0.312542
620.526	0.311721
620.860	0.311013
621.194	0.310282
621.528	0.309521
621.862	0.308812
622.195	0.308103
622.529	0.307287
622.863	0.306554
623.196	0.305788
623.530	0.305062
623.864	0.304357
624.197	0.303670
624.530	0.302990
624.864	0.302353
625.197	0.301816
625.531	0.301198
625.864	0.300601
626.197	0.299920
626.530	0.299295
626.863	0.298613
627.196	0.297830
627.529	0.297144
627.862	0.296364
628.195	0.295561
628.528	0.294833
628.861	0.294063
629.194	0.293382
629.527	0.292744
629.860	0.292126
630.192	0.291468
630.525	0.290790
630.858	0.290072
631.190	0.289321
631.523	0.288547
631.855	0.287683
632.188	0.286801
632.520	0.286020
632.852	0.285196
633.185	0.284450
633.517	0.283672
633.849	0.283003
634.182	0.282391
634.514	0.281806
634.846	0.281303
635.178	0.280775
635.510	0.280268
635.842	0.279739
636.174	0.279166
636.506	0.278686
636.837	0.278095
637.169	0.277567
637.501	0.277013
637.833	0.276551
638.164	0.276037
638.496	0.275541
638.828	0.274994
639.159	0.274437
639.491	0.273875
639.822	0.273235
640.154	0.272510
640.485	0.271721
640.816	0.270995
641.147	0.270291
641.479	0.269399
641.810	0.268556
642.141	0.267824
642.472	0.267059
642.803	0.266318
643.134	0.265472
643.465	0.264684
643.796	0.263968
644.127	0.263212
644.458	0.262567
644.789	0.261971
645.119	0.261535
645.450	0.261150
645.781	0.260953
646.111	0.260865
646.442	0.260792
646.773	0.260742
647.103	0.260624
647.433	0.260407
647.764	0.260042
648.094	0.259678
648.425	0.259465
648.755	0.259183
649.085	0.258875
649.415	0.258655
649.745	0.258474
650.075	0.258424
650.405	0.258229
650.735	0.256368
651.065	0.246681
651.395	0.237955
651.725	0.222368
652.055	0.182744
652.385	0.144397
652.715	0.112505
653.044	0.091148
653.374	0.076402
653.704	0.079451
654.033	0.094155
654.363	0.102951
654.692	0.108079
655.022	0.111110
655.351	0.112957
655.680	0.114034
656.010	0.114597
656.339	0.114831
656.668	0.114875
656.997	0.114807
657.326	0.114668
657.655	0.114449
657.984	0.113090
658.313	0.107386
658.642	0.099264
658.971	0.100708
659.300	0.111806
659.629	0.134000
659.958	0.165898
660.286	0.214626
660.615	0.248976
660.944	0.247200
661.272	0.244713
661.601	0.243174
661.929	0.242538
662.258	0.242512
662.586	0.242827
662.915	0.242942
663.243	0.242694
663.571	0.242087
663.899	0.241462
664.228	0.240952
664.556	0.240425
664.884	0.239980
665.212	0.239699
665.540	0.239333
665.868	0.239053
666.196	0.238742
666.524	0.238314
666.852	0.238088
667.179	0.237831
667.507	0.237436
667.835	0.237155
668.162	0.236839
668.490	0.236472
668.818	0.236246
669.145	0.235972
669.473	0.235652
669.800	0.235535
670.127	0.235418
670.455	0.235327
670.782	0.235283
671.109	0.235123
671.436	0.235039
671.764	0.234953
672.091	0.234737
672.418	0.234669
672.745	0.234479
673.072	0.234280
673.399	0.234065
673.726	0.233771
674.053	0.233538
674.379	0.233353
674.706	0.232996
675.033	0.232546
675.359	0.232294
675.686	0.231976
676.013	0.231583
676.339	0.231282
676.666	0.230824
676.992	0.230499
677.318	0.230250
677.645	0.229944
677.971	0.229634
678.297	0.229447
678.624	0.229259
678.950	0.229051
679.276	0.228789
679.602	0.228505
679.928	0.228114
680.254	0.227830
680.580	0.227508
680.906	0.227175
681.232	0.226804
681.558	0.226710
681.883	0.226586
682.209	0.226481
682.535	0.226327
682.860	0.226190
683.186	0.226077
683.511	0.225901
683.837	0.225613
684.162	0.225364
684.488	0.225063
684.813	0.224920
685.138	0.224556
685.464	0.224251
685.789	0.223899
686.114	0.223617
686.439	0.223401
686.764	0.223278
687.089	0.223087
687.414	0.222946
687.739	0.222812
688.064	0.222701
688.389	0.222444
688.714	0.222217
689.039	0.221781
689.363	0.221437
689.688	0.221078
690.013	0.220613
690.337	0.220307
690.662	0.220027
690.986	0.219718
691.311	0.219593
691.635	0.219246
691.959	0.219115
692.284	0.218856
692.608	0.218652
692.932	0.218376
693.256	0.218193
693.580	0.217938
693.904	0.217775
694.228	0.217681
694.552	0.217554
694.876	0.217427
695.200	0.217207
695.524	0.216900
695.848	0.216666
696.172	0.216297
696.495	0.215942
696.819	0.215732
697.143	0.215336
697.466	0.214901
697.790	0.214538
698.113	0.214176
698.437	0.213813
698.760	0.213427
699.083	0.213202
699.407	0.212952
699.730	0.212711
700.053	0.212506
700.376	0.212310
700.699	0.211923
701.022	0.211322
701.345	0.210658
701.668	0.209932
701.991	0.209171
702.314	0.208410
702.637	0.207616
702.960	0.206960
703.283	0.206409
703.605	0.205699
703.928	0.205384
704.251	0.205300
704.573	0.205159
704.896	0.204939
705.218	0.204761
705.540	0.204533
705.863	0.204151
706.185	0.203713
706.507	0.203186
706.830	0.202559
707.152	0.201846
707.474	0.201288
707.796	0.200826
708.118	0.200419
708.440	0.200085
708.762	0.199827
709.084	0.199612
709.406	0.199436
709.728	0.199250
710.049	0.198980
710.371	0.198758
710.693	0.198420
711.014	0.197866
711.336	0.197408
711.658	0.196990
711.979	0.196745
712.301	0.196440
712.622	0.196249
712.943	0.195985
713.265	0.195849
713.586	0.195651
713.907	0.195584
714.228	0.195589
714.549	0.195530
714.870	0.195505
715.191	0.195420
715.512	0.195368
715.833	0.195345
716.154	0.195194
716.475	0.194958
716.796	0.194710
717.117	0.194378
717.437	0.193958
717.758	0.193595
718.078	0.193139
718.399	0.192708
718.719	0.192250
719.040	0.191762
719.360	0.191367
719.681	0.191132
720.001	0.190893
720.321	0.190732
720.642	0.190496
720.962	0.190126
721.282	0.189915
721.602	0.189667
721.922	0.189403
722.242	0.189120
722.562	0.188781
722.882	0.188573
723.202	0.188480
723.521	0.188361
723.841	0.188242
724.161	0.188155
724.481	0.188150
724.800	0.188080
725.120	0.187937
725.439	0.187755
725.759	0.187733
726.078	0.187635
726.398	0.187500
726.717	0.187421
727.036	0.187452
727.355	0.187557
727.675	0.187728
727.994	0.187783
728.313	0.187870
728.632	0.187985
728.951	0.188029
729.270	0.187950
729.589	0.187769
729.908	0.187543
730.226	0.187298
730.545	0.187118
730.864	0.186928
731.182	0.186663
731.501	0.186533
731.820	0.186453
732.138	0.186287
732.457	0.186080
732.775	0.185925
733.093	0.185855
733.412	0.185793
733.730	0.185604
734.048	0.185385
734.367	0.185056
734.685	0.184757
735.003	0.184345
735.321	0.183981
735.639	0.183638
735.957	0.183331
736.275	0.183136
736.593	0.183021
736.910	0.182891
737.228	0.182759
737.546	0.182671
737.863	0.182577
738.181	0.182295
738.499	0.182024
738.816	0.181824
739.134	0.181627
739.451	0.181445
739.768	0.181172
740.086	0.180825
740.403	0.180540
740.720	0.180273
741.038	0.179982
741.355	0.179648
741.672	0.179375
741.989	0.179059
742.306	0.178649
742.623	0.178327
742.940	0.177840
743.257	0.177219
743.573	0.176696
743.890	0.176171
744.207	0.175559
744.523	0.175154
744.840	0.174774
745.157	0.174394
745.473	0.173954
745.790	0.173611
746.106	0.173245
746.422	0.172924
746.739	0.172545
747.055	0.172287
747.371	0.172069
747.687	0.171979
748.004	0.171928
748.320	0.171925
748.636	0.171821
748.952	0.171778
749.268	0.171835
749.584	0.171910
749.899	0.171919
750.215	0.171930
750.531	0.171898
750.847	0.171939
751.162	0.171959
751.478	0.172021
751.793	0.171927
752.109	0.171831
752.424	0.171718
752.740	0.171597
753.055	0.171579
753.370	0.171706
753.686	0.171794
754.001	0.171996
754.316	0.172194
754.631	0.172371
754.946	0.172519
755.261	0.172703
755.576	0.172770
755.891	0.172704
756.206	0.172627
756.521	0.172547
756.836	0.172545
757.150	0.172571
757.465	0.172543
757.780	0.172500
758.094	0.172546
758.409	0.172605
758.723	0.172725
759.038	0.172777
759.352	0.172832
759.667	0.172782
759.981	0.172637
760.295	0.172419
760.609	0.172116
760.923	0.171857
761.238	0.171622
761.552	0.171377
761.866	0.171089
762.180	0.170979
762.493	0.170952
762.807	0.170923
763.121	0.170836
763.435	0.170652
763.749	0.170372
764.062	0.170137
764.376	0.169844
764.689	0.169485
765.003	0.169222
765.316	0.169011
765.630	0.168965
765.943	0.168755
766.257	0.168644
766.570	0.168461
766.883	0.168303
767.196	0.168124
767.509	0.167762
767.822	0.167369
768.135	0.167012
768.448	0.166707
768.761	0.166323
769.074	0.166012
769.387	0.165620
769.700	0.165351
770.013	0.165102
770.325	0.164947
770.638	0.164872
770.950	0.164717
771.263	0.164543
771.575	0.164358
771.888	0.164006
772.200	0.163555
772.513	0.163195
772.825	0.162784
773.137	0.162461
773.449	0.162145
773.761	0.161745
774.074	0.161399
774.386	0.161132
774.698	0.160777
775.010	0.160367
775.321	0.160008
775.633	0.159548
775.945	0.159357
776.257	0.159298
776.568	0.159167
776.880	0.159084
777.192	0.158851
777.503	0.158723
777.815	0.158671
778.126	0.158617
778.438	0.158675
778.749	0.158880
779.060	0.159022
779.372	0.159107
779.683	0.159187
779.994	0.159281
780.305	0.159327
780.616	0.159498
780.927	0.159538
781.238	0.159491
781.549	0.159590
781.860	0.159635
782.171	0.159666
782.481	0.159691
782.792	0.159529
783.103	0.159549
783.413	0.159441
783.724	0.159271
784.034	0.159180
784.345	0.158949
784.655	0.158762
784.966	0.158570
785.276	0.158297
785.586	0.158083
785.896	0.157974
786.207	0.157868
786.517	0.157771
786.827	0.157714
787.137	0.157544
787.447	0.157482
787.757	0.157523
788.066	0.157406
788.376	0.157364
788.686	0.157360
788.996	0.157339
789.305	0.157283
789.615	0.157072
789.925	0.156991
790.234	0.157018
790.544	0.157009
790.853	0.157085
791.162	0.157135
791.472	0.157214
791.781	0.157302
792.090	0.157290
792.399	0.157174
792.708	0.156963
793.017	0.156715
793.326	0.156510
793.635	0.156440
793.944	0.156154
794.253	0.155847
794.562	0.155602
794.871	0.155425
795.179	0.155214
795.488	0.154963
795.797	0.154812
796.105	0.154751
796.414	0.154635
796.722	0.154463
797.031	0.154218
797.339	0.154007
797.647	0.153609
797.956	0.153071
798.264	0.152486
798.572	0.152027
798.880	0.151585
799.188	0.151210
799.496	0.150909
799.804	0.150654
800.112	0.150376
800.420	0.150315
800.728	0.150281
801.035	0.150167
801.343	0.149759
801.651	0.149328
801.958	0.148967
802.266	0.148833
802.573	0.148672
802.881	0.148767
803.188	0.148691
803.496	0.148833
803.803	0.148779
804.110	0.148900
804.417	0.148965
804.724	0.148874
805.032	0.148754
805.339	0.148755
805.646	0.148668
805.953	0.148445
806.259	0.148436
806.566	0.148243
806.873	0.148149
807.180	0.148106
807.486	0.148100
807.793	0.148188
808.100	0.148258
808.406	0.148247
808.713	0.147996
809.019	0.147554
809.326	0.146961
809.632	0.146447
809.938	0.145693
810.244	0.145014
810.551	0.144356
810.857	0.143735
811.163	0.143357
811.469	0.143090
811.775	0.142780
812.081	0.142498
812.387	0.142471
812.692	0.142115
812.998	0.142040
813.304	0.141917
813.610	0.141769
813.915	0.141602
814.221	0.141487
814.526	0.141300
814.832	0.141203
815.137	0.141102
815.443	0.141121
815.748	0.141255
816.053	0.141176
816.358	0.140955
816.664	0.140994
816.969	0.140907
817.274	0.141098
817.579	0.141078
817.884	0.140822
818.189	0.140531
818.493	0.140596
818.798	0.140497
819.103	0.140292
819.408	0.140030
819.712	0.139735
820.017	0.139356
820.321	0.139020
820.626	0.138585
820.930	0.138123
821.235	0.137824
821.539	0.137758
821.843	0.137614
822.148	0.137211
822.452	0.137175
822.756	0.137450
823.060	0.137179
823.364	0.137288
823.668	0.137163
823.972	0.136935
824.276	0.136931
824.580	0.136925
824.883	0.136783
825.187	0.136667
825.491	0.136800
825.795	0.136740
826.098	0.136593
826.402	0.136666
826.705	0.136805
827.008	0.136718
827.312	0.136682
827.615	0.136471
827.918	0.136053
828.222	0.135546
828.525	0.135113
828.828	0.134987
829.131	0.134726
829.434	0.134639
829.737	0.134007
830.040	0.133203
830.343	0.132734
830.645	0.132296
830.948	0.131829
831.251	0.131576
831.553	0.131128
831.856	0.130689
832.159	0.130755
832.461	0.130722
832.764	0.130422
833.066	0.129790
833.368	0.129633
833.671	0.129238
833.973	0.129277
834.275	0.129064
834.577	0.129207
834.879	0.129306
835.181	0.128799
835.483	0.128523
835.785	0.128197
836.087	0.128080
836.389	0.127832
836.690	0.127002
836.992	0.125816
837.294	0.124805
837.595	0.123666
837.897	0.122743
838.198	0.121695
838.500	0.120511
838.801	0.119183
839.103	0.118309
839.404	0.117722
839.705	0.117038
840.006	0.116640
840.307	0.116075
840.608	0.116192
840.910	0.115826
841.210	0.115764
841.511	0.115568
841.812	0.115389
842.113	0.115257
842.414	0.114384
842.715	0.114058
843.015	0.113631
843.316	0.113718
843.616	0.112623
843.917	0.111709
844.217	0.111654
844.518	0.111670
844.818	0.110831
845.118	0.110903
845.419	0.111111
845.719	0.111086
846.019	0.110715
846.319	0.111000
846.619	0.110353
846.919	0.110178
847.219	0.109825
847.519	0.109213
847.819	0.109405
848.118	0.108780
848.418	0.108151
848.718	0.108190
849.017	0.107843
849.317	0.107726
849.616	0.108171
849.916	0.109158
850.215	0.110163
850.515	0.110466
850.814	0.110868
851.113	0.111987
851.412	0.112641
851.712	0.112439
852.011	0.112487
852.310	0.113020
852.609	0.113248
852.908	0.113332
853.206	0.113406
853.505	0.113884
853.804	0.114174
854.103	0.114374
854.401	0.114654
854.700	0.115086
854.999	0.115006
855.297	0.115222
855.595	0.115847
855.894	0.115872
856.192	0.115881
856.491	0.115719
856.789	0.115575
857.087	0.115209
857.385	0.114488
857.683	0.113838
857.981	0.113689
858.279	0.113253
858.577	0.112246
858.875	0.111479
859.173	0.111485
859.471	0.111269
859.768	0.110748
860.066	0.109532
860.363	0.108481
860.661	0.107322
860.959	0.106387
861.256	0.106233
861.553	0.105675
861.851	0.104084
862.148	0.103466
862.445	0.102841
862.742	0.101968
863.039	0.100861
863.337	0.100257
863.634	0.099286
863.931	0.098317
864.227	0.097219
864.524	0.096875
864.821	0.097058
865.118	0.096251
865.415	0.095383
865.711	0.094047
866.008	0.092881
866.304	0.093334
866.601	0.093037
866.897	0.092450
867.194	0.091989
867.490	0.091426
867.786	0.090977
868.082	0.091120
868.379	0.090802
868.675	0.090726
868.971	0.090406
869.267	0.090162
869.563	0.091040
869.859	0.090893
870.154	0.090950
870.450	0.092028
870.746	0.091671
871.042	0.091080
871.337	0.091485
871.633	0.091005
871.928	0.091151
872.224	0.091023
872.519	0.089916
872.815	0.089939
873.110	0.090788
873.405	0.090459
873.700	0.089905
873.995	0.089896
874.291	0.090113
874.586	0.090859
874.881	0.090662
875.175	0.091023
875.470	0.092048
875.765	0.090964
876.060	0.091026
876.355	0.090849
876.649	0.090471
876.944	0.090843
877.238	0.091027
877.533	0.091085
877.827	0.091869
878.122	0.092458
878.416	0.092993
878.710	0.094059
879.005	0.093740
879.299	0.093131
879.593	0.092859
879.887	0.092761
880.181	0.092313
880.475	0.092098
880.769	0.091461
881.063	0.091233
881.356	0.090859
881.650	0.089901
881.944	0.089649
882.238	0.086201
882.531	0.082444
882.825	0.074421
883.118	0.074578
883.412	0.089844
883.705	0.088213
883.998	0.082734
884.291	0.083065
884.585	0.079174
884.878	0.080151
>>>>>>>>>> END of Data <<<<<<<<<<
>>>>>>>>>> Raw Data Start <<<<<<<<
190.664	-406
191.040	8
191.415	8
191.791	6
192.166	11
192.542	7
192.917	8
193.293	9
193.668	7
194.044	7
194.419	-10
194.794	10
195.170	10
195.545	11
195.920	11
196.296	11
196.671	11
197.046	12
197.421	12
197.796	13
198.171	14
198.546	13
198.922	14
199.297	14
199.672	14
200.047	15
200.422	15
200.796	15
201.171	15
201.546	15
201.921	15
202.296	15
202.671	15
203.045	16
203.420	16
203.795	16
204.170	16
204.544	16
204.919	15
205.294	15
205.668	15
206.043	15
206.417	15
206.792	15
207.166	15
207.541	15
207.915	14
208.289	14
208.664	14
209.038	14
209.412	14
209.787	14
210.161	14
210.535	15
210.909	15
211.284	14
211.658	14
212.032	14
212.406	15
212.780	15
213.154	14
213.528	14
213.902	14
214.276	14
214.650	14
215.024	14
215.398	14
215.772	14
216.145	14
216.519	14
216.893	14
217.267	14
217.640	14
218.014	14
218.388	15
218.761	15
219.135	15
219.508	15
219.882	15
220.256	15
220.629	15
221.003	15
221.376	15
221.749	15
222.123	15
222.496	15
222.869	15
223.243	15
223.616	15
223.989	15
224.362	15
224.736	15
225.109	16
225.482	15
225.855	15
226.228	15
226.601	14
226.974	14
227.347	14
227.720	14
228.093	14
228.466	14
228.839	14
229.212	14
229.585	14
229.957	14
230.330	14
230.703	14
231.076	14
231.448	14
231.821	14
232.194	14
232.566	14
232.939	14
233.311	14
233.684	14
234.056	14
234.429	15
234.801	14
235.174	15
235.546	15
235.918	15
236.291	15
236.663	15
237.035	15
237.408	15
237.780	15
238.152	15
238.524	16
238.896	16
239.268	16
239.641	16
240.013	16
240.385	16
240.757	15
241.129	16
241.500	16
241.872	16
242.244	16
242.616	16
242.988	15
243.360	15
243.731	15
244.103	16
244.475	15
244.847	16
245.218	15
245.590	15
245.961	15
246.333	15
246.705	15
247.076	15
247.448	15
247.819	15
248.190	15
248.562	16
248.933	16
249.305	16
249.676	16
250.047	16
250.418	16
250.790	16
251.161	16
251.532	16
251.903	16
252.274	16
252.645	16
253.016	15
253.387	16
253.758	16
254.129	16
254.500	16
254.871	16
255.242	16
255.613	16
255.984	16
256.355	15
256.725	15
257.096	15
257.467	15
257.838	14
258.208	14
258.579	14
258.949	14
259.320	15
259.690	15
260.061	15
260.431	15
260.802	15
261.172	15
261.543	14
261.913	15
262.283	15
262.654	15
263.024	15
263.394	16
263.764	16
264.135	16
264.505	17
264.875	17
265.245	16
265.615	17
265.985	17
266.355	17
266.725	17
267.095	17
267.465	17
267.835	17
268.205	17
268.575	17
268.944	17
269.314	17
269.684	16
270.054	16
270.423	16
270.793	16
271.163	16
271.532	16
271.902	15
272.271	15
272.641	15
273.010	15
273.380	15
273.749	15
274.119	16
274.488	16
274.857	16
275.227	16
275.596	16
275.965	16
276.335	16
276.704	16
277.073	16
277.442	16
277.811	16
278.180	16
278.549	16
278.918	16
279.287	16
279.656	16
280.025	16
280.394	16
280.763	16
281.132	16
281.501	16
281.869	15
282.238	15
282.607	15
282.976	14
283.344	14
283.713	14
284.081	14
284.450	14
284.819	14
285.187	15
285.556	15
285.924	15
286.292	15
286.661	15
287.029	15
287.398	16
287.766	16
288.134	16
288.502	16
288.871	16
289.239	16
289.607	16
289.975	17
290.343	17
290.711	17
291.079	17
291.447	17
291.815	17
292.183	17
292.551	17
292.919	17
293.287	17
293.655	17
294.022	17
294.390	17
294.758	16
295.126	16
295.493	16
295.861	16
296.229	16
296.596	16
296.964	16
297.331	16
297.699	16
298.066	16
298.434	16
298.801	16
299.168	16
299.536	16
299.903	16
300.270	16
300.638	16
301.005	16
301.372	16
301.739	16
302.106	16
302.473	17
302.840	17
303.207	16
303.574	16
303.941	16
304.308	16
304.675	17
305.042	17
305.409	17
305.776	17
306.143	17
306.509	17
306.876	17
307.243	17
307.610	17
307.976	17
308.343	17
308.709	17
309.076	17
309.442	17
309.809	17
310.175	17
310.542	17
310.908	18
311.275	18
311.641	18
312.007	18
312.373	18
312.740	18
313.106	18
313.472	18
313.838	18
314.204	18
314.570	19
314.936	19
315.302	20
315.668	20
316.034	20
316.400	20
316.766	20
317.132	20
317.498	20
317.864	20
318.230	20
318.595	21
318.961	21
319.327	21
319.692	22
320.058	22
320.424	23
320.789	23
321.155	24
321.520	24
321.886	25
322.251	25
322.616	25
322.982	26
323.347	26
323.712	27
324.078	28
324.443	29
324.808	30
325.173	31
325.539	31
325.904	32
326.269	33
326.634	34
326.999	35
327.364	35
327.729	35
328.094	36
328.459	37
328.823	38
329.188	38
329.553	39
329.918	40
330.283	40
330.647	41
331.012	42
331.377	43
331.741	44
332.106	44
332.470	45
332.835	46
333.199	47
333.564	48
333.928	48
334.293	49
334.657	50
335.021	51
335.386	52
335.750	53
336.114	54
336.478	55
336.843	56
337.207	57
337.571	58
337.935	59
338.299	60
338.663	61
339.027	62
339.391	63
339.755	64
340.119	66
340.483	67
340.846	67
341.210	68
341.574	70
341.938	71
342.301	72
342.665	73
343.029	74
343.392	75
343.756	76
344.119	77
344.483	78
344.846	79
345.210	80
345.573	81
345.937	82
346.300	83
346.663	84
347.027	85
347.390	86
347.753	87
348.116	88
348.479	89
348.843	90
349.206	91
349.569	93
349.932	94
350.295	94
350.658	95
351.021	96
351.383	97
351.746	98
352.109	99
352.472	99
352.835	100
353.197	101
353.560	101
353.923	102
354.285	103
354.648	103
355.011	104
355.373	105
355.736	105
356.098	106
356.461	106
356.823	107
357.185	107
357.548	108
357.910	109
358.272	110
358.635	111
358.997	111
359.359	112
359.721	112
360.083	113
360.445	113
360.807	114
361.169	115
361.531	115
361.893	116
362.255	116
362.617	117
362.979	117
363.341	118
363.703	119
364.064	119
364.426	120
364.788	121
365.149	121
365.511	122
365.873	122
366.234	122
366.596	123
366.957	124
367.319	124
367.680	124
368.042	125
368.403	125
368.764	125
369.126	126
369.487	126
369.848	126
370.209	126
370.570	127
370.931	126
371.293	126
371.654	126
372.015	126
372.376	126
372.737	126
373.098	126
373.458	126
373.819	127
374.180	126
374.541	126
374.902	126
375.263	127
375.623	127
375.984	127
376.345	128
376.705	128
377.066	128
377.426	129
377.787	129
378.147	129
378.508	130
378.868	130
379.228	130
379.589	131
379.949	131
380.309	131
380.670	131
381.030	132
381.390	132
381.750	133
382.110	133
382.470	133
382.830	133
383.190	133
383.550	133
383.910	133
384.270	133
384.630	133
384.990	133
385.350	134
385.709	134
386.069	134
386.429	134
386.788	134
387.148	134
387.508	134
387.867	134
388.227	134
388.586	135
388.946	135
389.305	135
389.665	135
390.024	136
390.383	137
390.743	137
391.102	138
391.461	138
391.820	138
392.179	139
392.539	138
392.898	138
393.257	139
393.616	138
393.975	139
394.334	139
394.693	140
395.051	141
395.410	142
395.769	142
396.128	142
396.487	142
396.845	142
397.204	142
397.563	142
397.921	142
398.280	142
398.638	142
398.997	142
399.355	142
399.714	142
400.072	142
400.431	142
400.789	142
401.147	143
401.506	143
401.864	143
402.222	143
402.580	143
402.938	142
403.297	142
403.655	142
404.013	141
404.371	141
404.729	141
405.087	141
405.444	140
405.802	140
406.160	140
406.518	140
406.876	140
407.233	140
407.591	139
407.949	139
408.306	139
408.664	138
409.022	138
409.379	138
409.737	138
410.094	137
410.451	137
410.809	137
411.166	138
411.523	137
411.881	137
412.238	138
412.595	137
412.952	137
413.310	137
413.667	137
414.024	136
414.381	136
414.738	136
415.095	137
415.452	137
415.809	137
416.165	137
416.522	136
416.879	136
417.236	136
417.593	137
417.949	138
418.306	138
418.663	139
419.019	140
419.376	141
419.732	142
420.089	143
420.445	143
420.802	144
421.158	145
421.514	146
421.871	147
422.227	147
422.583	147
422.939	148
423.295	148
423.652	148
424.008	149
424.364	149
424.720	149
425.076	148
425.432	148
425.788	148
426.143	148
426.499	149
426.855	148
427.211	148
427.567	149
427.922	148
428.278	149
428.634	149
428.989	149
429.345	148
429.700	149
430.056	149
430.411	149
430.767	149
431.122	150
431.478	150
431.833	150
432.188	150
432.543	150
432.899	150
433.254	149
433.609	149
433.964	148
434.319	147
434.674	147
435.029	147
435.384	147
435.739	146
436.094	147
436.449	147
436.804	147
437.158	148
437.513	149
437.868	150
438.223	151
438.577	152
438.932	153
439.287	155
439.641	156
439.996	158
440.350	159
440.704	160
441.059	162
441.413	164
441.768	165
442.122	166
442.476	167
442.830	169
443.185	170
443.539	172
443.893	173
444.247	174
444.601	175
444.955	175
445.309	175
445.663	175
446.017	175
446.371	176
446.724	176
447.078	176
447.432	176
447.786	176
448.139	176
448.493	175
448.847	175
449.200	175
449.554	174
449.907	174
450.261	173
450.614	173
450.968	173
451.321	173
451.674	172
452.027	172
452.381	172
452.734	173
453.087	173
453.440	173
453.793	174
454.146	174
454.499	175
454.852	177
455.205	178
455.558	179
455.911	181
456.264	182
456.617	184
456.970	186
457.322	187
457.675	188
458.028	190
458.380	191
458.733	192
459.086	193
459.438	194
459.791	196
460.143	198
460.496	200
460.848	202
461.200	205
461.553	207
461.905	209
462.257	212
462.609	214
462.961	216
463.314	218
463.666	219
464.018	220
464.370	222
464.722	223
465.074	226
465.426	227
465.777	228
466.129	230
466.481	231
466.833	232
467.184	232
467.536	232
467.888	232
468.239	232
468.591	233
468.943	233
469.294	234
469.646	234
469.997	236
470.348	238
470.700	240
471.051	242
471.402	245
471.754	249
472.105	253
472.456	256
472.807	261
473.158	265
473.509	270
473.860	276
474.211	282
474.562	288
474.913	294
475.264	301
475.615	307
475.966	313
476.316	320
476.667	327
477.018	333
477.368	340
477.719	347
478.070	353
478.420	360
478.771	366
479.121	372
479.472	378
479.822	385
480.172	392
480.523	400
480.873	411
481.223	429
481.573	455
481.924	487
482.274	523
482.624	561
482.974	600
483.324	634
483.674	660
484.024	677
484.374	690
484.724	698
485.073	704
485.423	710
485.773	715
486.123	720
486.472	725
486.822	730
487.172	734
487.521	737
487.871	739
488.220	738
488.570	729
488.919	714
489.268	691
489.618	664
489.967	634
490.316	605
490.666	580
491.015	562
491.364	552
491.713	547
492.062	547
492.411	548
492.760	551
493.109	554
493.458	557
493.807	559
494.156	562
494.505	564
494.853	567
495.202	571
495.551	575
495.900	579
496.248	584
496.597	588
496.945	593
497.294	597
497.642	601
497.991	607
498.339	613
498.688	619
499.036	625
499.384	630
499.732	635
500.081	640
500.429	644
500.777	648
501.125	651
501.473	655
501.821	659
502.169	663
502.517	667
502.865	669
503.213	671
503.561	673
503.908	675
504.256	676
504.604	678
504.952	678
505.299	679
505.647	678
505.994	678
506.342	677
506.689	676
507.037	676
507.384	676
507.732	677
508.079	678
508.426	678
508.774	679
509.121	680
509.468	680
509.815	679
510.162	680
510.509	680
510.856	680
511.203	680
511.550	680
511.897	680
512.244	680
512.591	680
512.938	680
513.284	680
513.631	680
513.978	679
514.324	678
514.671	677
515.018	676
515.364	675
515.711	675
516.057	674
516.403	674
516.750	673
517.096	672
517.443	670
517.789	668
518.135	666
518.481	666
518.827	665
519.173	663
519.519	662
519.865	661
520.211	660
520.557	660
520.903	659
521.249	659
521.595	659
521.941	659
522.287	659
522.632	659
522.978	659
523.324	658
523.669	659
524.015	661
524.360	663
524.706	666
525.051	669
525.397	673
525.742	677
526.087	681
526.433	686
526.778	690
527.123	692
527.468	695
527.813	698
528.158	700
528.504	703
528.849	708
529.193	713
529.538	719
529.883	727
530.228	735
530.573	745
530.918	755
531.263	765
531.607	774
531.952	783
532.296	790
532.641	796
532.986	801
533.330	806
533.675	811
534.019	817
534.363	826
534.708	835
535.052	846
535.396	857
535.741	867
536.085	877
536.429	887
536.773	894
537.117	901
537.461	906
537.805	911
538.149	917
538.493	923
538.837	930
539.181	937
539.524	947
539.868	958
540.212	970
540.556	982
540.899	996
541.243	1008
541.586	1019
541.930	1027
542.273	1034
542.617	1040
542.960	1046
543.304	1054
543.647	1063
543.990	1075
544.333	1088
544.677	1101
545.020	1114
545.363	1125
545.706	1135
546.049	1142
546.392	1148
546.735	1151
547.078	1154
547.421	1157
547.764	1161
548.106	1165
548.449	1171
548.792	1179
549.135	1190
549.477	1202
549.820	1214
550.162	1226
550.505	1235
550.847	1243
551.190	1249
551.532	1255
551.875	1262
552.217	1269
552.559	1277
552.901	1287
553.244	1299
553.586	1312
553.928	1325
554.270	1337
554.612	1348
554.954	1357
555.296	1366
555.638	1375
555.980	1384
556.322	1395
556.663	1409
557.005	1427
557.347	1448
557.689	1470
558.030	1492
558.372	1513
558.713	1533
559.055	1552
559.396	1571
559.738	1591
560.079	1613
560.421	1637
560.762	1663
561.103	1692
561.444	1724
561.786	1757
562.127	1792
562.468	1830
562.809	1870
563.150	1915
563.491	1964
563.832	2018
564.173	2078
564.514	2148
564.855	2230
565.195	2329
565.536	2447
565.877	2583
566.218	2737
566.558	2911
566.899	3102
567.239	3309
567.580	3526
567.920	3750
568.261	3977
568.601	4210
568.941	4451
569.282	4701
569.622	4960
569.962	5233
570.302	5524
570.643	5825
570.983	6131
571.323	6428
571.663	6717
572.003	6995
572.343	7257
572.683	7507
573.022	7764
573.362	8036
573.702	8319
574.042	8603
574.381	8879
574.721	9143
575.061	9399
575.400	9635
575.740	9848
576.079	10041
576.419	10234
576.758	10452
577.097	10706
577.437	10984
577.776	11279
578.115	11589
578.454	11902
578.794	12192
579.133	12422
579.472	12592
579.811	12702
580.150	12758
580.489	12775
580.828	12774
581.167	12777
581.505	12790
581.844	12809
582.183	12828
582.522	12855
582.860	12889
583.199	12922
583.538	12935
583.876	12907
584.215	12826
584.553	12685
584.891	12489
585.230	12238
585.568	11958
585.906	11670
586.245	11412
586.583	11190
586.921	11008
587.259	10843
587.597	10675
587.935	10500
588.273	10321
588.611	10157
588.949	10015
589.287	9900
589.625	9815
589.963	9752
590.300	9707
590.638	9666
590.976	9618
591.313	9557
591.651	9498
591.989	9449
592.326	9412
592.664	9381
593.001	9359
593.338	9351
593.676	9355
594.013	9376
594.350	9427
594.687	9503
595.025	9585
595.362	9661
595.699	9721
596.036	9765
596.373	9788
596.710	9787
597.047	9769
597.384	9743
597.720	9711
598.057	9688
598.394	9675
598.731	9676
599.067	9692
599.404	9725
599.741	9780
600.077	9852
600.414	9929
600.750	10008
601.087	10071
601.423	10109
601.759	10124
602.096	10122
602.432	10106
602.768	10076
603.104	10027
603.440	9964
603.776	9895
604.112	9819
604.448	9742
604.784	9657
605.120	9566
605.456	9478
605.792	9385
606.128	9286
606.463	9184
606.799	9083
607.135	8990
607.470	8899
607.806	8808
608.142	8719
608.477	8633
608.812	8551
609.148	8467
609.483	8378
609.819	8286
610.154	8200
610.489	8121
610.824	8052
611.159	7996
611.494	7938
611.830	7889
612.165	7839
612.500	7783
612.834	7716
613.169	7638
613.504	7552
613.839	7455
614.174	7343
614.509	7231
614.843	7118
615.178	7012
615.512	6905
615.847	6801
616.182	6698
616.516	6592
616.850	6480
617.185	6363
617.519	6244
617.853	6116
618.188	5983
618.522	5863
618.856	5760
619.190	5672
619.524	5595
619.858	5535
620.192	5487
620.526	5446
620.860	5405
621.194	5365
621.528	5327
621.862	5288
622.195	5240
622.529	5189
622.863	5135
623.196	5081
623.530	5027
623.864	4972
624.197	4916
624.530	4861
624.864	4813
625.197	4761
625.531	4703
625.864	4631
626.197	4556
626.530	4473
626.863	4379
627.196	4278
627.529	4174
627.862	4072
628.195	3972
628.528	3871
628.861	3775
629.194	3689
629.527	3606
629.860	3524
630.192	3444
630.525	3368
630.858	3299
631.190	3232
631.523	3169
631.855	3109
632.188	3058
632.520	3010
632.852	2965
633.185	2918
633.517	2874
633.849	2833
634.182	2796
634.514	2761
634.846	2729
635.178	2701
635.510	2676
635.842	2654
636.174	2632
636.506	2610
636.837	2589
637.169	2568
637.501	2546
637.833	2521
638.164	2493
638.496	2461
638.828	2425
639.159	2385
639.491	2341
639.822	2295
640.154	2249
640.485	2204
640.816	2159
641.147	2114
641.479	2071
641.810	2030
642.141	1989
642.472	1950
642.803	1910
643.134	1874
643.465	1842
643.796	1816
644.127	1799
644.458	1791
644.789	1791
645.119	1802
645.450	1820
645.781	1840
646.111	1860
646.442	1876
646.773	1890
647.103	1900
647.433	1910
647.764	1920
648.094	1933
648.425	1950
648.755	1969
649.085	1992
649.415	2016
649.745	2041
650.075	2065
650.405	2093
650.735	2155
651.065	2594
651.395	3951
651.725	6221
652.055	9137
652.385	12511
652.715	16186
653.044	19862
653.374	23514
653.704	26300
654.033	28284
654.363	29652
654.692	30564
655.022	31161
655.351	31554
655.680	31800
656.010	31935
656.339	31996
656.668	32013
656.997	32007
657.326	31984
657.655	31918
657.984	31466
658.313	30090
658.642	27792
658.971	24843
659.300	21430
659.629	17716
659.958	14004
660.286	10320
660.615	7506
660.944	5502
661.272	4114
661.601	3184
661.929	2567
662.258	2151
662.586	1877
662.915	1710
663.243	1614
663.571	1560
663.899	1528
664.228	1508
664.556	1495
664.884	1486
665.212	1480
665.540	1475
665.868	1473
666.196	1473
666.524	1473
666.852	1475
667.179	1481
667.507	1493
667.835	1510
668.162	1533
668.490	1561
668.818	1594
669.145	1629
669.473	1664
669.800	1696
670.127	1725
670.455	1748
670.782	1768
671.109	1785
671.436	1800
671.764	1812
672.091	1823
672.418	1831
672.745	1839
673.072	1846
673.399	1855
673.726	1865
674.053	1872
674.379	1875
674.706	1876
675.033	1876
675.359	1874
675.686	1870
676.013	1870
676.339	1871
676.666	1878
676.992	1893
677.318	1912
677.645	1935
677.971	1957
678.297	1976
678.624	1995
678.950	2012
679.276	2029
679.602	2046
679.928	2063
680.254	2084
680.580	2111
680.906	2145
681.232	2187
681.558	2230
681.883	2274
682.209	2314
682.535	2352
682.860	2386
683.186	2415
683.511	2438
683.837	2453
684.162	2465
684.488	2475
684.813	2484
685.138	2494
685.464	2503
685.789	2510
686.114	2517
686.439	2527
686.764	2536
687.089	2543
687.414	2545
687.739	2537
688.064	2523
688.389	2504
688.714	2481
689.039	2458
689.363	2433
689.688	2405
690.013	2378
690.337	2354
690.662	2335
690.986	2318
691.311	2299
691.635	2282
691.959	2264
692.284	2253
692.608	2250
692.932	2255
693.256	2263
693.580	2273
693.904	2286
694.228	2301
694.552	2315
694.876	2322
695.200	2321
695.524	2312
695.848	2297
696.172	2280
696.495	2261
696.819	2240
697.143	2220
697.466	2199
697.790	2181
698.113	2169
698.437	2163
698.760	2163
699.083	2162
699.407	2157
699.730	2146
700.053	2129
700.376	2105
700.699	2072
701.022	2030
701.345	1984
701.668	1942
701.991	1906
702.314	1882
702.637	1871
702.960	1876
703.283	1896
703.605	1931
703.928	1978
704.251	2031
704.573	2084
704.896	2132
705.218	2171
705.540	2202
705.863	2228
706.185	2248
706.507	2266
706.830	2284
707.152	2302
707.474	2321
707.796	2342
708.118	2364
708.440	2386
708.762	2405
709.084	2420
709.406	2428
709.728	2430
710.049	2425
710.371	2415
710.693	2400
711.014	2383
711.336	2367
711.658	2352
711.979	2338
712.301	2326
712.622	2312
712.943	2297
713.265	2277
713.586	2257
713.907	2238
714.228	2221
714.549	2207
714.870	2198
715.191	2194
715.512	2193
715.833	2190
716.154	2184
716.475	2175
716.796	2162
717.117	2142
717.437	2118
717.758	2092
718.078	2065
718.399	2038
718.719	2014
719.040	1994
719.360	1979
719.681	1967
720.001	1960
720.321	1956
720.642	1954
720.962	1956
721.282	1961
721.602	1967
721.922	1975
722.242	1985
722.562	1998
722.882	2014
723.202	2028
723.521	2041
723.841	2055
724.161	2069
724.481	2083
724.800	2097
725.120	2116
725.439	2138
725.759	2163
726.078	2192
726.398	2227
726.717	2271
727.036	2319
727.355	2370
727.675	2420
727.994	2467
728.313	2513
728.632	2552
728.951	2585
729.270	2613
729.589	2640
729.908	2673
730.226	2710
730.545	2750
730.864	2794
731.182	2842
731.501	2890
731.820	2935
732.138	2975
732.457	3011
732.775	3043
733.093	3068
733.412	3083
733.730	3087
734.048	3081
734.367	3068
734.685	3049
735.003	3028
735.321	3010
735.639	2994
735.957	2983
736.275	2971
736.593	2955
736.910	2930
737.228	2896
737.546	2851
737.863	2798
738.181	2741
738.499	2680
738.816	2620
739.134	2561
739.451	2501
739.768	2442
740.086	2385
740.403	2331
740.720	2281
741.038	2235
741.355	2190
741.672	2145
741.989	2100
742.306	2053
742.623	2004
742.940	1956
743.257	1912
743.573	1874
743.890	1843
744.207	1820
744.523	1803
744.840	1793
745.157	1786
745.473	1786
745.790	1792
746.106	1806
746.422	1827
746.739	1854
747.055	1886
747.371	1922
747.687	1959
748.004	1995
748.320	2026
748.636	2054
748.952	2082
749.268	2110
749.584	2137
749.899	2161
750.215	2187
750.531	2215
750.847	2246
751.162	2278
751.478	2309
751.793	2341
752.109	2375
752.424	2412
752.740	2450
753.055	2493
753.370	2543
753.686	2602
754.001	2666
754.316	2733
754.631	2804
754.946	2879
755.261	2958
755.576	3034
755.891	3109
756.206	3182
756.521	3260
756.836	3338
757.150	3414
757.465	3480
757.780	3538
758.094	3586
758.409	3623
758.723	3646
759.038	3656
759.352	3656
759.667	3645
759.981	3627
760.295	3610
760.609	3596
760.923	3587
761.238	3582
761.552	3579
761.866	3574
762.180	3567
762.493	3547
762.807	3510
763.121	3453
763.435	3383
763.749	3305
764.062	3232
764.376	3171
764.689	3129
765.003	3107
765.316	3103
765.630	3114
765.943	3132
766.257	3153
766.570	3171
766.883	3176
767.196	3168
767.509	3148
767.822	3119
768.135	3080
768.448	3038
768.761	2994
769.074	2956
769.387	2927
769.700	2909
770.013	2898
770.325	2889
770.638	2876
770.950	2852
771.263	2814
771.575	2761
771.888	2693
772.200	2615
772.513	2529
772.825	2439
773.137	2347
773.449	2256
773.761	2168
774.074	2087
774.386	2014
774.698	1954
775.010	1904
775.321	1869
775.633	1846
775.945	1832
776.257	1824
776.568	1822
776.880	1828
777.192	1842
777.503	1862
777.815	1887
778.126	1919
778.438	1958
778.749	2000
779.060	2040
779.372	2078
779.683	2115
779.994	2148
780.305	2175
780.616	2192
780.927	2204
781.238	2208
781.549	2203
781.860	2189
782.171	2169
782.481	2147
782.792	2125
783.103	2102
783.413	2078
783.724	2053
784.034	2028
784.345	2006
784.655	1985
784.966	1964
785.276	1942
785.586	1921
785.896	1899
786.207	1876
786.517	1852
786.827	1828
787.137	1806
787.447	1784
787.757	1763
788.066	1744
788.376	1725
788.686	1706
788.996	1686
789.305	1667
789.615	1652
789.925	1644
790.234	1642
790.544	1646
790.853	1654
791.162	1662
791.472	1670
791.781	1673
792.090	1670
792.399	1660
792.708	1645
793.017	1628
793.326	1611
793.635	1595
793.944	1581
794.253	1568
794.562	1560
794.871	1554
795.179	1550
795.488	1545
795.797	1538
796.105	1523
796.414	1501
796.722	1470
797.031	1431
797.339	1384
797.647	1331
797.956	1276
798.264	1224
798.572	1181
798.880	1148
799.188	1124
799.496	1106
799.804	1093
800.112	1083
800.420	1074
800.728	1065
801.035	1054
801.343	1042
801.651	1032
801.958	1030
802.266	1034
802.573	1043
802.881	1054
803.188	1068
803.496	1083
803.803	1099
804.110	1113
804.417	1126
804.724	1137
805.032	1148
805.339	1156
805.646	1162
805.953	1166
806.259	1166
806.566	1165
806.873	1160
807.180	1154
807.486	1148
807.793	1141
808.100	1129
808.406	1111
808.713	1085
809.019	1056
809.326	1027
809.632	999
809.938	973
810.244	949
810.551	929
810.857	912
811.163	897
811.469	881
811.775	864
812.081	847
812.387	831
812.692	819
812.998	809
813.304	801
813.610	795
813.915	790
814.221	786
814.526	783
814.832	780
815.137	777
815.443	772
815.748	764
816.053	754
816.358	743
816.664	734
816.969	725
817.274	717
817.579	711
817.884	708
818.189	707
818.493	706
818.798	705
819.103	700
819.408	693
819.712	686
820.017	677
820.321	668
820.626	659
820.930	651
821.235	645
821.539	643
821.843	643
822.148	645
822.452	646
822.756	645
823.060	643
823.364	639
823.668	634
823.972	627
824.276	621
824.580	615
824.883	613
825.187	612
825.491	611
825.795	612
826.098	612
826.402	611
826.705	609
827.008	604
827.312	598
827.615	588
827.918	576
828.222	563
828.525	549
828.828	536
829.131	522
829.434	509
829.737	496
830.040	487
830.343	479
830.645	472
830.948	465
831.251	457
831.553	451
831.856	447
832.159	442
832.461	436
832.764	430
833.066	424
833.368	419
833.671	415
833.973	412
834.275	410
834.577	407
834.879	403
835.181	399
835.483	394
835.785	389
836.087	382
836.389	374
836.690	365
836.992	355
837.294	345
837.595	334
837.897	323
838.198	311
838.500	301
838.801	291
839.103	283
839.404	276
839.705	270
840.006	265
840.307	261
840.608	258
840.910	256
841.210	254
841.511	252
841.812	250
842.113	247
842.414	244
842.715	240
843.015	234
843.316	229
843.616	225
843.917	221
844.217	217
844.518	213
844.818	211
845.118	209
845.419	208
845.719	207
846.019	206
846.319	205
846.619	204
846.919	203
847.219	203
847.519	201
847.819	200
848.118	200
848.418	203
848.718	209
849.017	219
849.317	234
849.616	251
849.916	270
850.215	292
850.515	316
850.814	340
851.113	361
851.412	379
851.712	397
852.011	413
852.310	428
852.609	442
852.908	454
853.206	464
853.505	474
853.804	482
854.103	489
854.401	494
854.700	496
854.999	494
855.297	488
855.595	477
855.894	464
856.192	447
856.491	427
856.789	406
857.087	384
857.385	364
857.683	346
857.981	329
858.279	314
858.577	300
858.875	287
859.173	277
859.471	268
859.768	261
860.066	256
860.363	251
860.661	247
860.959	244
861.256	241
861.553	237
861.851	233
862.148	229
862.445	224
862.742	220
863.039	217
863.337	214
863.634	212
863.931	210
864.227	210
864.524	209
864.821	209
865.118	209
865.415	207
865.711	205
866.008	201
866.304	197
866.601	193
866.897	190
867.194	187
867.490	186
867.786	185
868.082	185
868.379	185
868.675	186
868.971	186
869.267	186
869.563	186
869.859	186
870.154	185
870.450	183
870.746	182
871.042	182
871.337	181
871.633	182
871.928	183
872.224	184
872.519	186
872.815	187
873.110	187
873.405	187
873.700	187
873.995	186
874.291	186
874.586	187
874.881	188
875.175	189
875.470	192
875.765	196
876.060	199
876.355	203
876.649	208
876.944	211
877.238	215
877.533	218
877.827	220
878.122	222
878.416	223
878.710	222
879.005	222
879.299	221
879.593	221
879.887	219
880.181	219
880.475	218
880.769	216
881.063	214
881.356	212
881.650	209
881.944	206
882.238	170
882.531	165
882.825	165
883.118	168
883.412	165
883.705	163
883.998	171
884.291	175
884.585	177
884.878	185
>>>>>>>>>> END of Data <<<<<<<<<<