Date	2021年06月15日火曜日 04時12分30秒
Spectrometers	USB2+H05879
ダーク	使用
リファレンス	使用
積分時間[msec]	10
平均回数	280
ｽﾑｰｼﾞﾝｸﾞ	10
Electrical Dark	USE
ピクセル数	2048
計測モード	吸光度
保存開始波長[nm]	190.664
保存終了波長[nm]	884.878
保存ﾋﾟｯﾁ波長[nm]	全波長

>>>>>>>>>> Data Start <<<<<<<<<<<<
190.664	0.000000
191.040	0.000000
191.415	0.000000
191.791	-2.050325
192.166	-0.614391
192.542	-0.977891
192.917	0.000000
193.293	-0.228366
193.668	-0.268417
194.044	-1.191194
194.419	0.000000
194.794	-1.400536
195.170	-1.313889
195.545	-1.215905
195.920	-1.092439
196.296	-0.969689
196.671	-0.803714
197.046	-0.642624
197.421	-0.597288
197.796	-0.593343
198.171	-0.557341
198.546	-0.517698
198.922	-0.472535
199.297	-0.453784
199.672	-0.425517
200.047	-0.401468
200.422	-0.370224
200.796	-0.349932
201.171	-0.330503
201.546	-0.323963
201.921	-0.309218
202.296	-0.296470
202.671	-0.264688
203.045	-0.244481
203.420	-0.236466
203.795	-0.225428
204.170	-0.219824
204.544	-0.217405
204.919	-0.221156
205.294	-0.215724
205.668	-0.205478
206.043	-0.189082
206.417	-0.183164
206.792	-0.174450
207.166	-0.169434
207.541	-0.165430
207.915	-0.167259
208.289	-0.150480
208.664	-0.154235
209.038	-0.158619
209.412	-0.148493
209.787	-0.136366
210.161	-0.129566
210.535	-0.138683
210.909	-0.129565
211.284	-0.130920
211.658	-0.130313
212.032	-0.130605
212.406	-0.135736
212.780	-0.131944
213.154	-0.133806
213.528	-0.134946
213.902	-0.130338
214.276	-0.129079
214.650	-0.128624
215.024	-0.119317
215.398	-0.110394
215.772	-0.101552
216.145	-0.107538
216.519	-0.095341
216.893	-0.088787
217.267	-0.094150
217.640	-0.101455
218.014	-0.090735
218.388	-0.078351
218.761	-0.082503
219.135	-0.067436
219.508	-0.070462
219.882	-0.077578
220.256	-0.071769
220.629	-0.061173
221.003	-0.060092
221.376	-0.056429
221.749	-0.060887
222.123	-0.059436
222.496	-0.062428
222.869	-0.062360
223.243	-0.067770
223.616	-0.069798
223.989	-0.072497
224.362	-0.077462
224.736	-0.076436
225.109	-0.071468
225.482	-0.071758
225.855	-0.072168
226.228	-0.077004
226.601	-0.076017
226.974	-0.073854
227.347	-0.060950
227.720	-0.060276
228.093	-0.065039
228.466	-0.077123
228.839	-0.082485
229.212	-0.081315
229.585	-0.096309
229.957	-0.095261
230.330	-0.090047
230.703	-0.082511
231.076	-0.082735
231.448	-0.080504
231.821	-0.080079
232.194	-0.072814
232.566	-0.077206
232.939	-0.080501
233.311	-0.080145
233.684	-0.076798
234.056	-0.077796
234.429	-0.068370
234.801	-0.073401
235.174	-0.077975
235.546	-0.077553
235.918	-0.075109
236.291	-0.072567
236.663	-0.065116
237.035	-0.063150
237.408	-0.047735
237.780	-0.044784
238.152	-0.048085
238.524	-0.056504
238.896	-0.052447
239.268	-0.048421
239.641	-0.048818
240.013	-0.042980
240.385	-0.039786
240.757	-0.043989
241.129	-0.044120
241.500	-0.048358
241.872	-0.044463
242.244	-0.047036
242.616	-0.050527
242.988	-0.052768
243.360	-0.045028
243.731	-0.035540
244.103	-0.034915
244.475	-0.038808
244.847	-0.039303
245.218	-0.037332
245.590	-0.036558
245.961	-0.034764
246.333	-0.034853
246.705	-0.037417
247.076	-0.039800
247.448	-0.032406
247.819	-0.039556
248.190	-0.031768
248.562	-0.029665
248.933	-0.023831
249.305	-0.020512
249.676	-0.016967
250.047	-0.024105
250.418	-0.020783
250.790	-0.016338
251.161	-0.018631
251.532	-0.024144
251.903	-0.026991
252.274	-0.016175
252.645	-0.007333
253.016	-0.005473
253.387	-0.009911
253.758	-0.010345
254.129	-0.009415
254.500	-0.003159
254.871	-0.002837
255.242	-0.002606
255.613	-0.004146
255.984	-0.006352
256.355	-0.003769
256.725	-0.004661
257.096	-0.003361
257.467	-0.005648
257.838	-0.005383
258.208	-0.007334
258.579	-0.006247
258.949	-0.010884
259.320	-0.008871
259.690	-0.001363
260.061	-0.003846
260.431	-0.003632
260.802	-0.009724
261.172	-0.004757
261.543	-0.005789
261.913	-0.001561
262.283	-0.008685
262.654	-0.010548
263.024	-0.014202
263.394	-0.013616
263.764	-0.013397
264.135	-0.012682
264.505	-0.016267
264.875	-0.014856
265.245	-0.013658
265.615	-0.009777
265.985	-0.005143
266.355	-0.007570
266.725	0.000125
267.095	-0.001803
267.465	-0.004675
267.835	-0.009608
268.205	-0.017118
268.575	-0.013540
268.944	-0.008992
269.314	-0.003200
269.684	-0.004575
270.054	-0.005427
270.423	-0.002432
270.793	-0.003090
271.163	0.002559
271.532	0.001913
271.902	0.004451
272.271	0.010636
272.641	0.010875
273.010	0.007063
273.380	0.006554
273.749	0.002403
274.119	0.008447
274.488	0.009374
274.857	0.017639
275.227	0.017832
275.596	0.020363
275.965	0.025510
276.335	0.025101
276.704	0.024781
277.073	0.018354
277.442	0.017665
277.811	0.022962
278.180	0.029178
278.549	0.026661
278.918	0.022977
279.287	0.025818
279.656	0.032239
280.025	0.027047
280.394	0.026342
280.763	0.030944
281.132	0.038184
281.501	0.041655
281.869	0.037055
282.238	0.037877
282.607	0.027075
282.976	0.027495
283.344	0.034122
283.713	0.031957
284.081	0.033303
284.450	0.035281
284.819	0.040145
285.187	0.048877
285.556	0.051187
285.924	0.048342
286.292	0.056212
286.661	0.053248
287.029	0.045447
287.398	0.042656
287.766	0.047115
288.134	0.042423
288.502	0.039834
288.871	0.036577
289.239	0.041154
289.607	0.045372
289.975	0.047627
290.343	0.056345
290.711	0.053562
291.079	0.048739
291.447	0.048356
291.815	0.049250
292.183	0.048026
292.551	0.050113
292.919	0.050177
293.287	0.052372
293.655	0.058348
294.022	0.058123
294.390	0.067745
294.758	0.078490
295.126	0.074225
295.493	0.074405
295.861	0.083948
296.229	0.083365
296.596	0.088350
296.964	0.083395
297.331	0.084640
297.699	0.085894
298.066	0.087454
298.434	0.093075
298.801	0.098900
299.168	0.106793
299.536	0.110833
299.903	0.109390
300.270	0.107952
300.638	0.109789
301.005	0.112318
301.372	0.114212
301.739	0.114671
302.106	0.118601
302.473	0.126460
302.840	0.139499
303.207	0.160012
303.574	0.170370
303.941	0.188133
304.308	0.197288
304.675	0.213633
305.042	0.230764
305.409	0.248658
305.776	0.262509
306.143	0.282130
306.509	0.294413
306.876	0.317735
307.243	0.344802
307.610	0.376107
307.976	0.403874
308.343	0.432481
308.709	0.461579
309.076	0.492321
309.442	0.524476
309.809	0.548570
310.175	0.579352
310.542	0.611408
310.908	0.633015
311.275	0.662335
311.641	0.692202
312.007	0.720882
312.373	0.750572
312.740	0.776390
313.106	0.805748
313.472	0.842461
313.838	0.872877
314.204	0.905240
314.570	0.923166
314.936	0.943718
315.302	0.960885
315.668	0.984812
316.034	1.011649
316.400	1.046113
316.766	1.065081
317.132	1.093617
317.498	1.119663
317.864	1.129604
318.230	1.145747
318.595	1.162113
318.961	1.178050
319.327	1.196627
319.692	1.212561
320.058	1.222985
320.424	1.238634
320.789	1.249191
321.155	1.262225
321.520	1.275974
321.886	1.291057
322.251	1.303911
322.616	1.318898
322.982	1.332137
323.347	1.340934
323.712	1.350706
324.078	1.352429
324.443	1.358814
324.808	1.363012
325.173	1.369112
325.539	1.381445
325.904	1.386754
326.269	1.393027
326.634	1.397787
326.999	1.402210
327.364	1.406319
327.729	1.413947
328.094	1.419727
328.459	1.424982
328.823	1.427841
329.188	1.433529
329.553	1.435776
329.918	1.443103
330.283	1.444987
330.647	1.449731
331.012	1.454315
331.377	1.455971
331.741	1.458322
332.106	1.462494
332.470	1.463202
332.835	1.466666
333.199	1.467336
333.564	1.471761
333.928	1.475558
334.293	1.476706
334.657	1.477123
335.021	1.479857
335.386	1.480580
335.750	1.479608
336.114	1.480462
336.478	1.481469
336.843	1.480274
337.207	1.482650
337.571	1.485078
337.935	1.486169
338.299	1.485426
338.663	1.485135
339.027	1.486538
339.391	1.489052
339.755	1.489458
340.119	1.488896
340.483	1.488074
340.846	1.489011
341.210	1.489345
341.574	1.490049
341.938	1.490264
342.301	1.491292
342.665	1.491232
343.029	1.492398
343.392	1.493493
343.756	1.495206
344.119	1.495988
344.483	1.497555
344.846	1.497612
345.210	1.497377
345.573	1.497488
345.937	1.498026
346.300	1.498729
346.663	1.499005
347.027	1.498731
347.390	1.499065
347.753	1.501078
348.116	1.502273
348.479	1.503847
348.843	1.503109
349.206	1.502877
349.569	1.503000
349.932	1.504274
350.295	1.505376
350.658	1.505569
351.021	1.507191
351.383	1.507734
351.746	1.508280
352.109	1.509068
352.472	1.510153
352.835	1.510618
353.197	1.511712
353.560	1.513199
353.923	1.514593
354.285	1.514941
354.648	1.515476
355.011	1.516396
355.373	1.518670
355.736	1.520308
356.098	1.521189
356.461	1.522916
356.823	1.523447
357.185	1.526474
357.548	1.527866
357.910	1.528968
358.272	1.530174
358.635	1.530431
358.997	1.530066
359.359	1.532713
359.721	1.534117
360.083	1.535011
360.445	1.536724
360.807	1.537887
361.169	1.539109
361.531	1.539614
361.893	1.541374
362.255	1.542595
362.617	1.543352
362.979	1.543849
363.341	1.543337
363.703	1.543283
364.064	1.543433
364.426	1.545144
364.788	1.545272
365.149	1.546000
365.511	1.546875
365.873	1.548174
366.234	1.550151
366.596	1.552508
366.957	1.552563
367.319	1.553352
367.680	1.554683
368.042	1.554004
368.403	1.554961
368.764	1.556119
369.126	1.556657
369.487	1.557226
369.848	1.558342
370.209	1.560191
370.570	1.561083
370.931	1.564016
371.293	1.565931
371.654	1.567627
372.015	1.568878
372.376	1.570297
372.737	1.571131
373.098	1.572658
373.458	1.573659
373.819	1.575361
374.180	1.576967
374.541	1.577721
374.902	1.579264
375.263	1.580625
375.623	1.582767
375.984	1.584755
376.345	1.585756
376.705	1.587870
377.066	1.589050
377.426	1.589350
377.787	1.590121
378.147	1.591170
378.508	1.590560
378.868	1.590464
379.228	1.591741
379.589	1.592552
379.949	1.593029
380.309	1.594153
380.670	1.594569
381.030	1.595005
381.390	1.594782
381.750	1.593691
382.110	1.594282
382.470	1.595141
382.830	1.596377
383.190	1.598406
383.550	1.599687
383.910	1.600902
384.270	1.601274
384.630	1.602722
384.990	1.604446
385.350	1.605713
385.709	1.606421
386.069	1.608437
386.429	1.610513
386.788	1.611770
387.148	1.613322
387.508	1.615053
387.867	1.615990
388.227	1.616490
388.586	1.617745
388.946	1.618886
389.305	1.620850
389.665	1.622052
390.024	1.621844
390.383	1.622255
390.743	1.621486
391.102	1.620791
391.461	1.620467
391.820	1.621290
392.179	1.620542
392.539	1.621200
392.898	1.621426
393.257	1.622206
393.616	1.623170
393.975	1.623071
394.334	1.623729
394.693	1.623781
395.051	1.624141
395.410	1.624252
395.769	1.625748
396.128	1.625905
396.487	1.625679
396.845	1.625971
397.204	1.625380
397.563	1.625617
397.921	1.624675
398.280	1.624317
398.638	1.623598
398.997	1.623133
399.355	1.621894
399.714	1.622076
400.072	1.621083
400.431	1.620115
400.789	1.618520
401.147	1.617545
401.506	1.616041
401.864	1.614661
402.222	1.613152
402.580	1.611561
402.938	1.610325
403.297	1.608612
403.655	1.607151
404.013	1.606049
404.371	1.605064
404.729	1.604559
405.087	1.603347
405.444	1.602778
405.802	1.600710
406.160	1.600644
406.518	1.599401
406.876	1.599138
407.233	1.597967
407.591	1.596888
407.949	1.596001
408.306	1.595033
408.664	1.593774
409.022	1.593883
409.379	1.592600
409.737	1.591336
410.094	1.589814
410.451	1.588874
410.809	1.587432
411.166	1.586055
411.523	1.585779
411.881	1.584304
412.238	1.582885
412.595	1.581440
412.952	1.579721
413.310	1.579188
413.667	1.577662
414.024	1.576999
414.381	1.575473
414.738	1.573764
415.095	1.571357
415.452	1.569839
415.809	1.568140
416.165	1.566120
416.522	1.563818
416.879	1.562057
417.236	1.560818
417.593	1.559258
417.949	1.557240
418.306	1.555614
418.663	1.555513
419.019	1.552937
419.376	1.550730
419.732	1.548438
420.089	1.546744
420.445	1.545185
420.802	1.543691
421.158	1.541536
421.514	1.539405
421.871	1.536743
422.227	1.534135
422.583	1.532917
422.939	1.530605
423.295	1.528542
423.652	1.526522
424.008	1.524198
424.364	1.521858
424.720	1.518986
425.076	1.516787
425.432	1.514495
425.788	1.512412
426.143	1.509013
426.499	1.506011
426.855	1.504009
427.211	1.501869
427.567	1.499522
427.922	1.497296
428.278	1.494010
428.634	1.491825
428.989	1.489322
429.345	1.486987
429.700	1.485225
430.056	1.482810
430.411	1.481009
430.767	1.478912
431.122	1.476417
431.478	1.473723
431.833	1.470836
432.188	1.468568
432.543	1.465572
432.899	1.462603
433.254	1.458862
433.609	1.455259
433.964	1.452476
434.319	1.448939
434.674	1.445540
435.029	1.442068
435.384	1.438371
435.739	1.435085
436.094	1.432267
436.449	1.429035
436.804	1.425905
437.158	1.422534
437.513	1.419093
437.868	1.414859
438.223	1.411304
438.577	1.406968
438.932	1.403954
439.287	1.400709
439.641	1.396909
439.996	1.393794
440.350	1.390322
440.704	1.387308
441.059	1.384196
441.413	1.380339
441.768	1.376394
442.122	1.372978
442.476	1.369093
442.830	1.365286
443.185	1.361832
443.539	1.357608
443.893	1.354044
444.247	1.350473
444.601	1.346724
444.955	1.342817
445.309	1.339203
445.663	1.334856
446.017	1.331125
446.371	1.326438
446.724	1.321995
447.078	1.317815
447.432	1.313272
447.786	1.309040
448.139	1.304342
448.493	1.299706
448.847	1.295365
449.200	1.290986
449.554	1.286635
449.907	1.282524
450.261	1.277844
450.614	1.273389
450.968	1.268918
451.321	1.264124
451.674	1.259568
452.027	1.255009
452.381	1.250441
452.734	1.245792
453.087	1.241489
453.440	1.236726
453.793	1.232436
454.146	1.227903
454.499	1.223448
454.852	1.218713
455.205	1.214030
455.558	1.209551
455.911	1.205361
456.264	1.200912
456.617	1.196820
456.970	1.192423
457.322	1.188149
457.675	1.184285
458.028	1.180624
458.380	1.176670
458.733	1.172994
459.086	1.169160
459.438	1.165162
459.791	1.160986
460.143	1.157087
460.496	1.153247
460.848	1.149317
461.200	1.145352
461.553	1.141587
461.905	1.137835
462.257	1.133914
462.609	1.130437
462.961	1.126880
463.314	1.123297
463.666	1.119910
464.018	1.116202
464.370	1.112896
464.722	1.109486
465.074	1.105899
465.426	1.102427
465.777	1.099322
466.129	1.096033
466.481	1.092946
466.833	1.089907
467.184	1.087155
467.536	1.083823
467.888	1.080397
468.239	1.077003
468.591	1.073182
468.943	1.069244
469.294	1.065286
469.646	1.061525
469.997	1.057331
470.348	1.053815
470.700	1.049955
471.051	1.046519
471.402	1.043083
471.754	1.039654
472.105	1.036365
472.456	1.033372
472.807	1.030160
473.158	1.027431
473.509	1.024609
473.860	1.021438
474.211	1.018679
474.562	1.015857
474.913	1.013053
475.264	1.010218
475.615	1.007468
475.966	1.004868
476.316	1.002075
476.667	0.999317
477.018	0.996779
477.368	0.994131
477.719	0.991095
478.070	0.988488
478.420	0.985663
478.771	0.983148
479.121	0.980389
479.472	0.977820
479.822	0.975122
480.172	0.972523
480.523	0.969598
480.873	0.966487
481.223	0.963099
481.573	0.959672
481.924	0.956367
482.274	0.953111
482.624	0.950224
482.974	0.947688
483.324	0.945521
483.674	0.943655
484.024	0.941833
484.374	0.940040
484.724	0.938346
485.073	0.936665
485.423	0.935039
485.773	0.933392
486.123	0.931599
486.472	0.929910
486.822	0.928141
487.172	0.926523
487.521	0.924813
487.871	0.923053
488.220	0.921359
488.570	0.919579
488.919	0.917261
489.268	0.914531
489.618	0.911617
489.967	0.908193
490.316	0.904382
490.666	0.900332
491.015	0.896562
491.364	0.893088
491.713	0.889824
492.062	0.886891
492.411	0.884093
492.760	0.881207
493.109	0.878375
493.458	0.875731
493.807	0.873104
494.156	0.870455
494.505	0.867625
494.853	0.864936
495.202	0.862218
495.551	0.859322
495.900	0.856603
496.248	0.853905
496.597	0.851195
496.945	0.848498
497.294	0.845927
497.642	0.843268
497.991	0.840547
498.339	0.837805
498.688	0.835231
499.036	0.832864
499.384	0.830285
499.732	0.827780
500.081	0.825307
500.429	0.822892
500.777	0.820437
501.125	0.818022
501.473	0.815587
501.821	0.813220
502.169	0.810906
502.517	0.808589
502.865	0.806391
503.213	0.804009
503.561	0.801707
503.908	0.799503
504.256	0.797232
504.604	0.794894
504.952	0.792618
505.299	0.790377
505.647	0.788209
505.994	0.785994
506.342	0.783577
506.689	0.781270
507.037	0.779036
507.384	0.776713
507.732	0.774399
508.079	0.772150
508.426	0.769922
508.774	0.767717
509.121	0.765685
509.468	0.763611
509.815	0.761567
510.162	0.759546
510.509	0.757515
510.856	0.755574
511.203	0.753578
511.550	0.751661
511.897	0.749746
512.244	0.747946
512.591	0.745932
512.938	0.743860
513.284	0.741806
513.631	0.739925
513.978	0.738029
514.324	0.736042
514.671	0.734153
515.018	0.732250
515.364	0.730379
515.711	0.728574
516.057	0.726679
516.403	0.724706
516.750	0.722812
517.096	0.720933
517.443	0.719111
517.789	0.717313
518.135	0.715392
518.481	0.713570
518.827	0.711707
519.173	0.709883
519.519	0.707950
519.865	0.706102
520.211	0.704323
520.557	0.702381
520.903	0.700472
521.249	0.698612
521.595	0.696792
521.941	0.694837
522.287	0.692848
522.632	0.690817
522.978	0.688751
523.324	0.686808
523.669	0.684860
524.015	0.682845
524.360	0.680796
524.706	0.678764
525.051	0.676849
525.397	0.674957
525.742	0.673073
526.087	0.671233
526.433	0.669306
526.778	0.667568
527.123	0.665860
527.468	0.663978
527.813	0.662214
528.158	0.660362
528.504	0.658383
528.849	0.656289
529.193	0.654393
529.538	0.652376
529.883	0.650311
530.228	0.648132
530.573	0.646066
530.918	0.643917
531.263	0.641804
531.607	0.639865
531.952	0.637833
532.296	0.635751
532.641	0.633743
532.986	0.631571
533.330	0.629377
533.675	0.627356
534.019	0.625063
534.363	0.622787
534.708	0.620586
535.052	0.618414
535.396	0.616179
535.741	0.614083
536.085	0.611948
536.429	0.609653
536.773	0.607493
537.117	0.605194
537.461	0.602831
537.805	0.600321
538.149	0.597763
538.493	0.595148
538.837	0.592520
539.181	0.589834
539.524	0.587137
539.868	0.584498
540.212	0.581802
540.556	0.579148
540.899	0.576517
541.243	0.573869
541.586	0.571205
541.930	0.568529
542.273	0.565753
542.617	0.563013
542.960	0.560162
543.304	0.557178
543.647	0.554179
543.990	0.551132
544.333	0.548078
544.677	0.545068
545.020	0.542132
545.363	0.539116
545.706	0.536149
546.049	0.533168
546.392	0.530219
546.735	0.527258
547.078	0.524110
547.421	0.520999
547.764	0.517841
548.106	0.514466
548.449	0.511092
548.792	0.507716
549.135	0.504299
549.477	0.501001
549.820	0.497751
550.162	0.494496
550.505	0.491214
550.847	0.487865
551.190	0.484332
551.532	0.480710
551.875	0.477004
552.217	0.473125
552.559	0.469510
552.901	0.465769
553.244	0.462062
553.586	0.458502
553.928	0.455042
554.270	0.451689
554.612	0.448399
554.954	0.445045
555.296	0.441608
555.638	0.438133
555.980	0.434432
556.322	0.430617
556.663	0.426564
557.005	0.422422
557.347	0.418348
557.689	0.414357
558.030	0.410501
558.372	0.406616
558.713	0.402842
559.055	0.399044
559.396	0.395224
559.738	0.391309
560.079	0.387484
560.421	0.383690
560.762	0.379949
561.103	0.376173
561.444	0.372570
561.786	0.368943
562.127	0.365354
562.468	0.361742
562.809	0.358019
563.150	0.354268
563.491	0.350431
563.832	0.346501
564.173	0.342393
564.514	0.338192
564.855	0.333957
565.195	0.329592
565.536	0.325233
565.877	0.320920
566.218	0.316714
566.558	0.312627
566.899	0.308685
567.239	0.304959
567.580	0.301499
567.920	0.298286
568.261	0.295369
568.601	0.292501
568.941	0.289801
569.282	0.287242
569.622	0.284740
569.962	0.282260
570.302	0.279797
570.643	0.277417
570.983	0.275141
571.323	0.272999
571.663	0.270914
572.003	0.268827
572.343	0.266703
572.683	0.264509
573.022	0.262240
573.362	0.259877
573.702	0.257484
574.042	0.255143
574.381	0.252844
574.721	0.250592
575.061	0.248428
575.400	0.246375
575.740	0.244381
576.079	0.242415
576.419	0.240345
576.758	0.238176
577.097	0.235945
577.437	0.233645
577.776	0.231291
578.115	0.228956
578.454	0.226738
578.794	0.224717
579.133	0.222917
579.472	0.221288
579.811	0.219753
580.150	0.218218
580.489	0.216655
580.828	0.215012
581.167	0.213315
581.505	0.211591
581.844	0.209879
582.183	0.208163
582.522	0.206471
582.860	0.204847
583.199	0.203290
583.538	0.201820
583.876	0.200416
584.215	0.199012
584.553	0.197588
584.891	0.196181
585.230	0.194749
585.568	0.193242
585.906	0.191663
586.245	0.190074
586.583	0.188559
586.921	0.187194
587.259	0.185972
587.597	0.184810
587.935	0.183586
588.273	0.182257
588.611	0.180779
588.949	0.179221
589.287	0.177595
589.625	0.175992
589.963	0.174455
590.300	0.172960
590.638	0.171556
590.976	0.170174
591.313	0.168765
591.651	0.167359
591.989	0.165996
592.326	0.164684
592.664	0.163498
593.001	0.162363
593.338	0.161329
593.676	0.160379
594.013	0.159433
594.350	0.158507
594.687	0.157613
595.025	0.156813
595.362	0.155973
595.699	0.155100
596.036	0.154204
596.373	0.153311
596.710	0.152368
597.047	0.151402
597.384	0.150447
597.720	0.149497
598.057	0.148551
598.394	0.147614
598.731	0.146679
599.067	0.145720
599.404	0.144796
599.741	0.143905
600.077	0.143036
600.414	0.142244
600.750	0.141516
601.087	0.140820
601.423	0.140132
601.759	0.139418
602.096	0.138678
602.432	0.137983
602.768	0.137255
603.104	0.136555
603.440	0.135826
603.776	0.135149
604.112	0.134469
604.448	0.133830
604.784	0.133192
605.120	0.132565
605.456	0.131967
605.792	0.131395
606.128	0.130823
606.463	0.130264
606.799	0.129618
607.135	0.129031
607.470	0.128454
607.806	0.127804
608.142	0.127215
608.477	0.126632
608.812	0.126048
609.148	0.125500
609.483	0.124905
609.819	0.124391
610.154	0.123783
610.489	0.123199
610.824	0.122596
611.159	0.122020
611.494	0.121439
611.830	0.120939
612.165	0.120506
612.500	0.120074
612.834	0.119656
613.169	0.119246
613.504	0.118773
613.839	0.118346
614.174	0.117895
614.509	0.117396
614.843	0.116974
615.178	0.116516
615.512	0.116087
615.847	0.115684
616.182	0.115308
616.516	0.114965
616.850	0.114594
617.185	0.114250
617.519	0.113911
617.853	0.113585
618.188	0.113176
618.522	0.112753
618.856	0.112273
619.190	0.111764
619.524	0.111298
619.858	0.110849
620.192	0.110432
620.526	0.110037
620.860	0.109711
621.194	0.109350
621.528	0.108965
621.862	0.108598
622.195	0.108281
622.529	0.107896
622.863	0.107553
623.196	0.107164
623.530	0.106830
623.864	0.106471
624.197	0.106147
624.530	0.105779
624.864	0.105438
625.197	0.105164
625.531	0.104856
625.864	0.104571
626.197	0.104241
626.530	0.103920
626.863	0.103545
627.196	0.103183
627.529	0.102828
627.862	0.102381
628.195	0.101943
628.528	0.101582
628.861	0.101174
629.194	0.100811
629.527	0.100440
629.860	0.100113
630.192	0.099727
630.525	0.099276
630.858	0.098923
631.190	0.098533
631.523	0.098192
631.855	0.097732
632.188	0.097301
632.520	0.096952
632.852	0.096526
633.185	0.096155
633.517	0.095801
633.849	0.095464
634.182	0.095192
634.514	0.094989
634.846	0.094823
635.178	0.094685
635.510	0.094461
635.842	0.094241
636.174	0.093978
636.506	0.093750
636.837	0.093487
637.169	0.093308
637.501	0.093094
637.833	0.092916
638.164	0.092674
638.496	0.092367
638.828	0.092048
639.159	0.091762
639.491	0.091372
639.822	0.091013
640.154	0.090586
640.485	0.090140
640.816	0.089696
641.147	0.089137
641.479	0.088573
641.810	0.088086
642.141	0.087612
642.472	0.087223
642.803	0.086835
643.134	0.086438
643.465	0.086036
643.796	0.085679
644.127	0.085259
644.458	0.085024
644.789	0.084725
645.119	0.084574
645.450	0.084644
645.781	0.084817
646.111	0.084974
646.442	0.085101
646.773	0.085211
647.103	0.085270
647.433	0.085244
647.764	0.085245
648.094	0.085253
648.425	0.085237
648.755	0.085210
649.085	0.085184
649.415	0.085199
649.745	0.085270
650.075	0.085260
650.405	0.085242
650.735	0.083871
651.065	0.075592
651.395	0.069066
651.725	0.057758
652.055	0.039275
652.385	0.028599
652.715	0.021646
653.044	0.016761
653.374	0.013163
653.704	0.010411
654.033	0.012984
654.363	0.017227
654.692	0.019548
655.022	0.020881
655.351	0.021678
655.680	0.022142
656.010	0.022387
656.339	0.022488
656.668	0.022497
656.997	0.022464
657.326	0.022399
657.655	0.022347
657.984	0.022141
658.313	0.020160
658.642	0.018402
658.971	0.021671
659.300	0.025826
659.629	0.031285
659.958	0.038761
660.286	0.049656
660.615	0.067012
660.944	0.078473
661.272	0.076749
661.601	0.076347
661.929	0.076622
662.258	0.077246
662.586	0.077835
662.915	0.078197
663.243	0.078145
663.571	0.077913
663.899	0.077681
664.228	0.077447
664.556	0.077298
664.884	0.077175
665.212	0.077076
665.540	0.076912
665.868	0.076813
666.196	0.076693
666.524	0.076609
666.852	0.076558
667.179	0.076403
667.507	0.076321
667.835	0.076256
668.162	0.076245
668.490	0.076266
668.818	0.076266
669.145	0.076320
669.473	0.076365
669.800	0.076507
670.127	0.076646
670.455	0.076725
670.782	0.076792
671.109	0.076833
671.436	0.076931
671.764	0.077033
672.091	0.077094
672.418	0.077126
672.745	0.077096
673.072	0.077131
673.399	0.077118
673.726	0.077121
674.053	0.077100
674.379	0.077015
674.706	0.076945
675.033	0.076760
675.359	0.076663
675.686	0.076577
676.013	0.076479
676.339	0.076304
676.666	0.076038
676.992	0.075858
677.318	0.075753
677.645	0.075646
677.971	0.075580
678.297	0.075485
678.624	0.075381
678.950	0.075142
679.276	0.075022
679.602	0.074913
679.928	0.074742
680.254	0.074521
680.580	0.074357
680.906	0.074268
681.232	0.074163
681.558	0.074251
681.883	0.074407
682.209	0.074515
682.535	0.074585
682.860	0.074546
683.186	0.074560
683.511	0.074553
683.837	0.074405
684.162	0.074320
684.488	0.074246
684.813	0.074191
685.138	0.074023
685.464	0.073920
685.789	0.073854
686.114	0.073763
686.439	0.073699
686.764	0.073631
687.089	0.073618
687.414	0.073574
687.739	0.073579
688.064	0.073599
688.389	0.073486
688.714	0.073323
689.039	0.073096
689.363	0.072891
689.688	0.072748
690.013	0.072531
690.337	0.072398
690.662	0.072390
690.986	0.072383
691.311	0.072313
691.635	0.072174
691.959	0.072147
692.284	0.071948
692.608	0.071785
692.932	0.071658
693.256	0.071580
693.580	0.071580
693.904	0.071584
694.228	0.071722
694.552	0.071766
694.876	0.071807
695.200	0.071739
695.524	0.071597
695.848	0.071503
696.172	0.071283
696.495	0.071069
696.819	0.070993
697.143	0.070736
697.466	0.070518
697.790	0.070203
698.113	0.069968
698.437	0.069760
698.760	0.069555
699.083	0.069512
699.407	0.069490
699.730	0.069465
700.053	0.069339
700.376	0.069178
700.699	0.068907
701.022	0.068479
701.345	0.067933
701.668	0.067309
701.991	0.066731
702.314	0.066098
702.637	0.065467
702.960	0.064987
703.283	0.064555
703.605	0.064127
703.928	0.063931
704.251	0.063792
704.573	0.063689
704.896	0.063613
705.218	0.063532
705.540	0.063300
705.863	0.062973
706.185	0.062563
706.507	0.062152
706.830	0.061710
707.152	0.061194
707.474	0.060712
707.796	0.060276
708.118	0.059921
708.440	0.059636
708.762	0.059470
709.084	0.059349
709.406	0.059202
709.728	0.059068
710.049	0.058875
710.371	0.058672
710.693	0.058406
711.014	0.058048
711.336	0.057782
711.658	0.057520
711.979	0.057324
712.301	0.057150
712.622	0.057040
712.943	0.056854
713.265	0.056635
713.586	0.056492
713.907	0.056460
714.228	0.056516
714.549	0.056508
714.870	0.056596
715.191	0.056599
715.512	0.056537
715.833	0.056587
716.154	0.056556
716.475	0.056434
716.796	0.056283
717.117	0.056074
717.437	0.055754
717.758	0.055454
718.078	0.055068
718.399	0.054698
718.719	0.054281
719.040	0.053987
719.360	0.053669
719.681	0.053493
720.001	0.053365
720.321	0.053264
720.642	0.053090
720.962	0.052762
721.282	0.052638
721.602	0.052450
721.922	0.052310
722.242	0.052154
722.562	0.051940
722.882	0.051827
723.202	0.051748
723.521	0.051688
723.841	0.051642
724.161	0.051521
724.481	0.051459
724.800	0.051427
725.120	0.051324
725.439	0.051260
725.759	0.051167
726.078	0.051136
726.398	0.051117
726.717	0.051098
727.036	0.051139
727.355	0.051178
727.675	0.051387
727.994	0.051520
728.313	0.051663
728.632	0.051756
728.951	0.051806
729.270	0.051746
729.589	0.051533
729.908	0.051367
730.226	0.051182
730.545	0.051037
730.864	0.050950
731.182	0.050789
731.501	0.050670
731.820	0.050579
732.138	0.050513
732.457	0.050429
732.775	0.050325
733.093	0.050232
733.412	0.050154
733.730	0.050005
734.048	0.049859
734.367	0.049586
734.685	0.049276
735.003	0.048902
735.321	0.048601
735.639	0.048292
735.957	0.048101
736.275	0.048014
736.593	0.048005
736.910	0.047981
737.228	0.047923
737.546	0.047842
737.863	0.047779
738.181	0.047605
738.499	0.047405
738.816	0.047214
739.134	0.046990
739.451	0.046827
739.768	0.046693
740.086	0.046503
740.403	0.046287
740.720	0.046105
741.038	0.045946
741.355	0.045748
741.672	0.045499
741.989	0.045233
742.306	0.044993
742.623	0.044608
742.940	0.044260
743.257	0.043664
743.573	0.043148
743.890	0.042640
744.207	0.042211
744.523	0.041926
744.840	0.041585
745.157	0.041299
745.473	0.040951
745.790	0.040807
746.106	0.040509
746.422	0.040214
746.739	0.039993
747.055	0.039843
747.371	0.039689
747.687	0.039629
748.004	0.039598
748.320	0.039649
748.636	0.039598
748.952	0.039571
749.268	0.039670
749.584	0.039724
749.899	0.039797
750.215	0.039816
750.531	0.039820
750.847	0.039892
751.162	0.039934
751.478	0.040047
751.793	0.040048
752.109	0.040011
752.424	0.039949
752.740	0.039996
753.055	0.040074
753.370	0.040135
753.686	0.040347
754.001	0.040650
754.316	0.040913
754.631	0.041170
754.946	0.041344
755.261	0.041493
755.576	0.041688
755.891	0.041753
756.206	0.041719
756.521	0.041683
756.836	0.041734
757.150	0.041848
757.465	0.041904
757.780	0.041965
758.094	0.042014
758.409	0.042124
758.723	0.042280
759.038	0.042334
759.352	0.042382
759.667	0.042383
759.981	0.042338
760.295	0.042140
760.609	0.041911
760.923	0.041720
761.238	0.041491
761.552	0.041308
761.866	0.041190
762.180	0.041070
762.493	0.041001
762.807	0.040980
763.121	0.040941
763.435	0.040793
763.749	0.040548
764.062	0.040351
764.376	0.040115
764.689	0.039933
765.003	0.039757
765.316	0.039611
765.630	0.039627
765.943	0.039587
766.257	0.039580
766.570	0.039488
766.883	0.039406
767.196	0.039254
767.509	0.039043
767.822	0.038799
768.135	0.038614
768.448	0.038435
768.761	0.038179
769.074	0.037984
769.387	0.037761
769.700	0.037592
770.013	0.037464
770.325	0.037387
770.638	0.037276
770.950	0.037166
771.263	0.037081
771.575	0.036838
771.888	0.036541
772.200	0.036206
772.513	0.035835
772.825	0.035477
773.137	0.035191
773.449	0.034990
773.761	0.034710
774.074	0.034427
774.386	0.034294
774.698	0.034088
775.010	0.033778
775.321	0.033551
775.633	0.033307
775.945	0.033202
776.257	0.033159
776.568	0.033161
776.880	0.033164
777.192	0.033249
777.503	0.033247
777.815	0.033236
778.126	0.033405
778.438	0.033646
778.749	0.033874
779.060	0.034143
779.372	0.034286
779.683	0.034468
779.994	0.034546
780.305	0.034678
780.616	0.034880
780.927	0.035046
781.238	0.035106
781.549	0.035261
781.860	0.035321
782.171	0.035421
782.481	0.035554
782.792	0.035593
783.103	0.035631
783.413	0.035676
783.724	0.035634
784.034	0.035603
784.345	0.035495
784.655	0.035498
784.966	0.035338
785.276	0.035319
785.586	0.035211
785.896	0.035159
786.207	0.035142
786.517	0.035203
786.827	0.035299
787.137	0.035307
787.447	0.035228
787.757	0.035353
788.066	0.035382
788.376	0.035517
788.686	0.035540
788.996	0.035594
789.305	0.035594
789.615	0.035612
789.925	0.035531
790.234	0.035573
790.544	0.035762
790.853	0.035943
791.162	0.036001
791.472	0.036250
791.781	0.036373
792.090	0.036571
792.399	0.036564
792.708	0.036471
793.017	0.036463
793.326	0.036311
793.635	0.036289
793.944	0.036179
794.253	0.035943
794.562	0.035797
794.871	0.035715
795.179	0.035682
795.488	0.035533
795.797	0.035543
796.105	0.035522
796.414	0.035692
796.722	0.035683
797.031	0.035641
797.339	0.035595
797.647	0.035450
797.956	0.035131
798.264	0.034687
798.572	0.034250
798.880	0.034050
799.188	0.033933
799.496	0.033739
799.804	0.033647
800.112	0.033347
800.420	0.033326
800.728	0.033388
801.035	0.033351
801.343	0.033071
801.651	0.032774
801.958	0.032595
802.266	0.032449
802.573	0.032450
802.881	0.032459
803.188	0.032538
803.496	0.032666
803.803	0.032757
804.110	0.032927
804.417	0.032994
804.724	0.033056
805.032	0.033063
805.339	0.033060
805.646	0.033090
805.953	0.032881
806.259	0.032905
806.566	0.032815
806.873	0.032829
807.180	0.032826
807.486	0.032901
807.793	0.033042
808.100	0.033218
808.406	0.033219
808.713	0.033282
809.019	0.033059
809.326	0.032757
809.632	0.032507
809.938	0.031856
810.244	0.031465
810.551	0.031071
810.857	0.030683
811.163	0.030498
811.469	0.030318
811.775	0.030273
812.081	0.030139
812.387	0.030144
812.692	0.030040
812.998	0.030242
813.304	0.030221
813.610	0.030341
813.915	0.030233
814.221	0.030237
814.526	0.030145
814.832	0.030321
815.137	0.030063
815.443	0.030063
815.748	0.029974
816.053	0.029811
816.358	0.029837
816.664	0.029888
816.969	0.029912
817.274	0.030267
817.579	0.030175
817.884	0.030135
818.189	0.030131
818.493	0.030248
818.798	0.030538
819.103	0.030511
819.408	0.030276
819.712	0.030028
820.017	0.029637
820.321	0.029495
820.626	0.029301
820.930	0.029148
821.235	0.028797
821.539	0.028772
821.843	0.028765
822.148	0.028764
822.452	0.028775
822.756	0.029103
823.060	0.028960
823.364	0.029041
823.668	0.028887
823.972	0.029100
824.276	0.029257
824.580	0.029284
824.883	0.029353
825.187	0.029346
825.491	0.029456
825.795	0.029583
826.098	0.029732
826.402	0.029828
826.705	0.030069
827.008	0.029829
827.312	0.029786
827.615	0.029660
827.918	0.029435
828.222	0.029138
828.525	0.028914
828.828	0.029025
829.131	0.028815
829.434	0.028684
829.737	0.028352
830.040	0.028016
830.343	0.027580
830.645	0.027273
830.948	0.026761
831.251	0.026180
831.553	0.025805
831.856	0.025318
832.159	0.025431
832.461	0.025304
832.764	0.025115
833.066	0.024693
833.368	0.024968
833.671	0.024761
833.973	0.024865
834.275	0.024888
834.577	0.024952
834.879	0.024868
835.181	0.024395
835.483	0.023967
835.785	0.023672
836.087	0.023482
836.389	0.023297
836.690	0.022666
836.992	0.022011
837.294	0.021440
837.595	0.020708
837.897	0.019780
838.198	0.019152
838.500	0.018212
838.801	0.017463
839.103	0.017049
839.404	0.016356
839.705	0.015723
840.006	0.015369
840.307	0.015017
840.608	0.014898
840.910	0.014887
841.210	0.015215
841.511	0.015428
841.812	0.015720
842.113	0.016043
842.414	0.015730
842.715	0.015434
843.015	0.014958
843.316	0.014905
843.616	0.014399
843.917	0.014335
844.217	0.014328
844.518	0.014762
844.818	0.014332
845.118	0.014478
845.419	0.014844
845.719	0.014649
846.019	0.014025
846.319	0.014210
846.619	0.013661
846.919	0.013478
847.219	0.013832
847.519	0.013405
847.819	0.013238
848.118	0.012348
848.418	0.011515
848.718	0.011871
849.017	0.011894
849.317	0.012432
849.616	0.012362
849.916	0.013025
850.215	0.013555
850.515	0.014222
850.814	0.014379
851.113	0.015018
851.412	0.015224
851.712	0.015220
852.011	0.015302
852.310	0.015635
852.609	0.015663
852.908	0.015947
853.206	0.016048
853.505	0.015943
853.804	0.016074
854.103	0.016145
854.401	0.016400
854.700	0.016627
854.999	0.016331
855.297	0.016231
855.595	0.016397
855.894	0.016462
856.192	0.016444
856.491	0.016304
856.789	0.015865
857.087	0.015332
857.385	0.014760
857.683	0.014422
857.981	0.014052
858.279	0.013823
858.577	0.013246
858.875	0.012688
859.173	0.012192
859.471	0.012067
859.768	0.012011
860.066	0.011550
860.363	0.010970
860.661	0.010305
860.959	0.010268
861.256	0.009975
861.553	0.009892
861.851	0.008806
862.148	0.007931
862.445	0.007367
862.742	0.006946
863.039	0.006396
863.337	0.006564
863.634	0.005989
863.931	0.005463
864.227	0.004698
864.524	0.004682
864.821	0.005047
865.118	0.005272
865.415	0.005093
865.711	0.004092
866.008	0.003058
866.304	0.003008
866.601	0.002649
866.897	0.002658
867.194	0.001850
867.490	0.002288
867.786	0.001761
868.082	0.001989
868.379	0.002388
868.675	0.002039
868.971	0.002099
869.267	0.002386
869.563	0.002942
869.859	0.003025
870.154	0.002383
870.450	0.002506
870.746	0.001819
871.042	0.001531
871.337	0.000913
871.633	0.000629
871.928	0.001028
872.224	0.000739
872.519	-0.000202
872.815	-0.000800
873.110	-0.001068
873.405	-0.001049
873.700	-0.001441
873.995	-0.001301
874.291	-0.000702
874.586	-0.000742
874.881	-0.000376
875.175	-0.000530
875.470	-0.000882
875.765	-0.001818
876.060	-0.002010
876.355	-0.001560
876.649	-0.001220
876.944	-0.000654
877.238	-0.000813
877.533	-0.000556
877.827	-0.000031
878.122	-0.000001
878.416	0.000572
878.710	0.001379
879.005	0.001728
879.299	0.001960
879.593	0.001638
879.887	0.001194
880.181	0.000962
880.475	0.000834
880.769	0.000736
881.063	0.000660
881.356	0.000490
881.650	0.000578
881.944	0.000466
882.238	-0.000681
882.531	-0.005969
882.825	-0.014066
883.118	-0.008614
883.412	0.008128
883.705	-0.003103
883.998	0.000970
884.291	-0.001645
884.585	-0.003090
884.878	-0.005607
>>>>>>>>>> END of Data <<<<<<<<<<
>>>>>>>>>> Raw Data Start <<<<<<<<
190.664	-389
191.040	7
191.415	7
191.791	2
192.166	9
192.542	11
192.917	8
193.293	5
193.668	4
194.044	12
194.419	-9
194.794	10
195.170	10
195.545	10
195.920	11
196.296	11
196.671	11
197.046	11
197.421	12
197.796	13
198.171	13
198.546	13
198.922	14
199.297	14
199.672	15
200.047	15
200.422	15
200.796	15
201.171	15
201.546	15
201.921	15
202.296	15
202.671	15
203.045	15
203.420	16
203.795	16
204.170	16
204.544	16
204.919	16
205.294	16
205.668	16
206.043	15
206.417	15
206.792	15
207.166	15
207.541	14
207.915	14
208.289	14
208.664	14
209.038	14
209.412	14
209.787	15
210.161	15
210.535	15
210.909	15
211.284	15
211.658	15
212.032	15
212.406	15
212.780	15
213.154	14
213.528	14
213.902	14
214.276	15
214.650	15
215.024	14
215.398	14
215.772	14
216.145	14
216.519	14
216.893	14
217.267	14
217.640	14
218.014	15
218.388	15
218.761	14
219.135	15
219.508	15
219.882	15
220.256	15
220.629	15
221.003	15
221.376	15
221.749	15
222.123	15
222.496	15
222.869	15
223.243	15
223.616	15
223.989	15
224.362	16
224.736	16
225.109	16
225.482	16
225.855	16
226.228	15
226.601	15
226.974	15
227.347	15
227.720	15
228.093	15
228.466	15
228.839	16
229.212	16
229.585	15
229.957	16
230.330	16
230.703	16
231.076	16
231.448	16
231.821	15
232.194	15
232.566	15
232.939	15
233.311	15
233.684	15
234.056	15
234.429	15
234.801	15
235.174	15
235.546	15
235.918	15
236.291	15
236.663	16
237.035	15
237.408	16
237.780	16
238.152	16
238.524	16
238.896	16
239.268	16
239.641	16
240.013	16
240.385	16
240.757	17
241.129	17
241.500	17
241.872	17
242.244	17
242.616	17
242.988	17
243.360	17
243.731	17
244.103	17
244.475	17
244.847	17
245.218	17
245.590	17
245.961	17
246.333	17
246.705	17
247.076	18
247.448	18
247.819	18
248.190	18
248.562	18
248.933	18
249.305	18
249.676	18
250.047	18
250.418	18
250.790	18
251.161	18
251.532	18
251.903	18
252.274	18
252.645	17
253.016	17
253.387	17
253.758	18
254.129	17
254.500	17
254.871	18
255.242	18
255.613	18
255.984	17
256.355	17
256.725	17
257.096	17
257.467	17
257.838	17
258.208	17
258.579	17
258.949	18
259.320	18
259.690	18
260.061	18
260.431	18
260.802	19
261.172	18
261.543	18
261.913	18
262.283	19
262.654	19
263.024	19
263.394	19
263.764	19
264.135	19
264.505	20
264.875	20
265.245	19
265.615	19
265.985	19
266.355	19
266.725	19
267.095	19
267.465	19
267.835	19
268.205	19
268.575	19
268.944	19
269.314	19
269.684	19
270.054	18
270.423	18
270.793	18
271.163	18
271.532	18
271.902	18
272.271	18
272.641	18
273.010	18
273.380	18
273.749	18
274.119	18
274.488	18
274.857	18
275.227	18
275.596	18
275.965	18
276.335	18
276.704	18
277.073	19
277.442	19
277.811	19
278.180	19
278.549	19
278.918	19
279.287	20
279.656	19
280.025	20
280.394	20
280.763	20
281.132	20
281.501	19
281.869	19
282.238	19
282.607	19
282.976	19
283.344	19
283.713	19
284.081	19
284.450	19
284.819	19
285.187	18
285.556	18
285.924	18
286.292	18
286.661	18
287.029	18
287.398	18
287.766	18
288.134	19
288.502	19
288.871	19
289.239	19
289.607	19
289.975	19
290.343	19
290.711	19
291.079	19
291.447	19
291.815	19
292.183	19
292.551	19
292.919	19
293.287	19
293.655	19
294.022	19
294.390	19
294.758	18
295.126	18
295.493	18
295.861	18
296.229	18
296.596	18
296.964	18
297.331	18
297.699	18
298.066	18
298.434	19
298.801	18
299.168	18
299.536	18
299.903	18
300.270	18
300.638	18
301.005	19
301.372	19
301.739	19
302.106	20
302.473	20
302.840	20
303.207	19
303.574	20
303.941	20
304.308	20
304.675	20
305.042	20
305.409	20
305.776	20
306.143	20
306.509	20
306.876	21
307.243	21
307.610	20
307.976	20
308.343	20
308.709	20
309.076	20
309.442	20
309.809	20
310.175	20
310.542	20
310.908	20
311.275	20
311.641	20
312.007	21
312.373	21
312.740	21
313.106	21
313.472	21
313.838	21
314.204	20
314.570	21
314.936	21
315.302	22
315.668	22
316.034	22
316.400	22
316.766	22
317.132	22
317.498	22
317.864	23
318.230	23
318.595	23
318.961	24
319.327	24
319.692	24
320.058	25
320.424	25
320.789	26
321.155	26
321.520	27
321.886	27
322.251	28
322.616	28
322.982	29
323.347	30
323.712	30
324.078	32
324.443	33
324.808	34
325.173	35
325.539	36
325.904	37
326.269	37
326.634	39
326.999	40
327.364	41
327.729	41
328.094	42
328.459	43
328.823	44
329.188	45
329.553	46
329.918	47
330.283	48
330.647	49
331.012	50
331.377	51
331.741	52
332.106	53
332.470	54
332.835	55
333.199	56
333.564	57
333.928	58
334.293	59
334.657	60
335.021	61
335.386	62
335.750	64
336.114	65
336.478	66
336.843	68
337.207	69
337.571	70
337.935	71
338.299	73
338.663	74
339.027	75
339.391	76
339.755	77
340.119	79
340.483	80
340.846	81
341.210	83
341.574	84
341.938	85
342.301	86
342.665	87
343.029	88
343.392	89
343.756	90
344.119	91
344.483	92
344.846	94
345.210	95
345.573	96
345.937	97
346.300	98
346.663	99
347.027	100
347.390	101
347.753	102
348.116	103
348.479	103
348.843	104
349.206	106
349.569	107
349.932	107
350.295	108
350.658	109
351.021	109
351.383	110
351.746	111
352.109	111
352.472	112
352.835	113
353.197	113
353.560	114
353.923	114
354.285	115
354.648	115
355.011	116
355.373	116
355.736	116
356.098	117
356.461	117
356.823	118
357.185	118
357.548	118
357.910	118
358.272	119
358.635	119
358.997	120
359.359	120
359.721	120
360.083	121
360.445	121
360.807	121
361.169	121
361.531	122
361.893	122
362.255	122
362.617	123
362.979	123
363.341	124
363.703	125
364.064	125
364.426	125
364.788	126
365.149	127
365.511	127
365.873	127
366.234	127
366.596	127
366.957	127
367.319	127
367.680	127
368.042	128
368.403	128
368.764	128
369.126	128
369.487	128
369.848	128
370.209	128
370.570	128
370.931	127
371.293	127
371.654	126
372.015	126
372.376	126
372.737	126
373.098	126
373.458	126
373.819	126
374.180	126
374.541	126
374.902	126
375.263	126
375.623	126
375.984	126
376.345	126
376.705	126
377.066	126
377.426	127
377.787	127
378.147	127
378.508	128
378.868	128
379.228	129
379.589	129
379.949	129
380.309	129
380.670	129
381.030	130
381.390	130
381.750	131
382.110	131
382.470	131
382.830	130
383.190	130
383.550	130
383.910	130
384.270	130
384.630	130
384.990	130
385.350	131
385.709	131
386.069	131
386.429	130
386.788	130
387.148	130
387.508	130
387.867	130
388.227	130
388.586	131
388.946	131
389.305	131
389.665	132
390.024	133
390.383	133
390.743	134
391.102	135
391.461	136
391.820	136
392.179	136
392.539	136
392.898	136
393.257	137
393.616	137
393.975	138
394.334	138
394.693	139
395.051	140
395.410	141
395.769	142
396.128	142
396.487	143
396.845	143
397.204	143
397.563	143
397.921	143
398.280	143
398.638	144
398.997	144
399.355	144
399.714	144
400.072	145
400.431	146
400.789	146
401.147	147
401.506	148
401.864	148
402.222	149
402.580	149
402.938	149
403.297	149
403.655	149
404.013	149
404.371	149
404.729	149
405.087	150
405.444	150
405.802	151
406.160	151
406.518	151
406.876	151
407.233	152
407.591	152
407.949	152
408.306	153
408.664	153
409.022	153
409.379	153
409.737	154
410.094	154
410.451	155
410.809	155
411.166	156
411.523	156
411.881	157
412.238	158
412.595	159
412.952	159
413.310	159
413.667	160
414.024	160
414.381	161
414.738	161
415.095	162
415.452	163
415.809	164
416.165	165
416.522	166
416.879	167
417.236	168
417.593	169
417.949	171
418.306	173
418.663	174
419.019	177
419.376	179
419.732	181
420.089	183
420.445	185
420.802	187
421.158	189
421.514	191
421.871	193
422.227	194
422.583	195
422.939	197
423.295	198
423.652	200
424.008	201
424.364	202
424.720	203
425.076	204
425.432	205
425.788	206
426.143	207
426.499	209
426.855	210
427.211	211
427.567	213
427.922	214
428.278	215
428.634	216
428.989	217
429.345	218
429.700	219
430.056	221
430.411	222
430.767	224
431.122	226
431.478	228
431.833	229
432.188	231
432.543	232
432.899	234
433.254	235
433.609	236
433.964	237
434.319	238
434.674	239
435.029	240
435.384	241
435.739	243
436.094	245
436.449	248
436.804	250
437.158	254
437.513	257
437.868	261
438.223	265
438.577	270
438.932	274
439.287	278
439.641	283
439.996	287
440.350	292
440.704	296
441.059	301
441.413	306
441.768	311
442.122	315
442.476	320
442.830	325
443.185	329
443.539	334
443.893	339
444.247	342
444.601	346
444.955	349
445.309	351
445.663	354
446.017	356
446.371	358
446.724	360
447.078	362
447.432	364
447.786	366
448.139	367
448.493	369
448.847	370
449.200	371
449.554	372
449.907	372
450.261	374
450.614	375
450.968	376
451.321	377
451.674	379
452.027	380
452.381	382
452.734	384
453.087	385
453.440	388
453.793	390
454.146	393
454.499	397
454.852	402
455.205	407
455.558	412
455.911	417
456.264	422
456.617	427
456.970	432
457.322	437
457.675	441
458.028	445
458.380	449
458.733	452
459.086	456
459.438	461
459.791	465
460.143	470
460.496	477
460.848	483
461.200	490
461.553	498
461.905	505
462.257	511
462.609	517
462.961	522
463.314	528
463.666	532
464.018	537
464.370	541
464.722	546
465.074	551
465.426	555
465.777	560
466.129	563
466.481	566
466.833	569
467.184	570
467.536	571
467.888	572
468.239	572
468.591	573
468.943	574
469.294	576
469.646	578
469.997	582
470.348	586
470.700	592
471.051	598
471.402	606
471.754	616
472.105	625
472.456	635
472.807	647
473.158	658
473.509	671
473.860	686
474.211	700
474.562	716
474.913	732
475.264	749
475.615	765
475.966	782
476.316	798
476.667	814
477.018	831
477.368	848
477.719	866
478.070	882
478.420	899
478.771	914
479.121	930
479.472	946
479.822	962
480.172	980
480.523	1000
480.873	1028
481.223	1073
481.573	1139
481.924	1221
482.274	1314
482.624	1412
482.974	1510
483.324	1596
483.674	1662
484.024	1707
484.374	1739
484.724	1759
485.073	1774
485.423	1787
485.773	1800
486.123	1812
486.472	1824
486.822	1835
487.172	1845
487.521	1853
487.871	1858
488.220	1854
488.570	1833
488.919	1791
489.268	1732
489.618	1663
489.967	1588
490.316	1513
490.666	1447
491.015	1401
491.364	1374
491.713	1362
492.062	1360
492.411	1363
492.760	1370
493.109	1377
493.458	1384
493.807	1391
494.156	1396
494.505	1403
494.853	1409
495.202	1417
495.551	1427
495.900	1437
496.248	1447
496.597	1458
496.945	1468
497.294	1478
497.642	1489
497.991	1501
498.339	1515
498.688	1530
499.036	1543
499.384	1556
499.732	1568
500.081	1578
500.429	1587
500.777	1596
501.125	1604
501.473	1612
501.821	1621
502.169	1629
502.517	1637
502.865	1642
503.213	1647
503.561	1650
503.908	1653
504.256	1655
504.604	1657
504.952	1658
505.299	1658
505.647	1656
505.994	1653
506.342	1650
506.689	1647
507.037	1644
507.384	1644
507.732	1644
508.079	1644
508.426	1645
508.774	1646
509.121	1644
509.468	1644
509.815	1643
510.162	1641
510.509	1641
510.856	1639
511.203	1636
511.550	1634
511.897	1633
512.244	1630
512.591	1629
512.938	1628
513.284	1627
513.631	1624
513.978	1622
514.324	1619
514.671	1615
515.018	1611
515.364	1608
515.711	1606
516.057	1603
516.403	1601
516.750	1598
517.096	1594
517.443	1589
517.789	1584
518.135	1580
518.481	1577
518.827	1574
519.173	1570
519.519	1567
519.865	1564
520.211	1561
520.557	1559
520.903	1558
521.249	1557
521.595	1556
521.941	1555
522.287	1554
522.632	1554
522.978	1553
523.324	1553
523.669	1554
524.015	1557
524.360	1561
524.706	1568
525.051	1576
525.397	1585
525.742	1595
526.087	1605
526.433	1616
526.778	1624
527.123	1631
527.468	1637
527.813	1643
528.158	1649
528.504	1656
528.849	1667
529.193	1680
529.538	1694
529.883	1713
530.228	1733
530.573	1756
530.918	1781
531.263	1805
531.607	1827
531.952	1847
532.296	1864
532.641	1879
532.986	1891
533.330	1903
533.675	1914
534.019	1930
534.363	1950
534.708	1972
535.052	1997
535.396	2024
535.741	2050
536.085	2073
536.429	2095
536.773	2113
537.117	2129
537.461	2142
537.805	2155
538.149	2169
538.493	2183
538.837	2200
539.181	2218
539.524	2241
539.868	2267
540.212	2296
540.556	2326
540.899	2358
541.243	2387
541.586	2411
541.930	2432
542.273	2448
542.617	2461
542.960	2475
543.304	2493
543.647	2514
543.990	2542
544.333	2572
544.677	2604
545.020	2634
545.363	2660
545.706	2681
546.049	2697
546.392	2709
546.735	2715
547.078	2721
547.421	2727
547.764	2734
548.106	2743
548.449	2755
548.792	2773
549.135	2795
549.477	2822
549.820	2848
550.162	2872
550.505	2892
550.847	2907
551.190	2920
551.532	2930
551.875	2941
552.217	2954
552.559	2968
552.901	2988
553.244	3012
553.586	3037
553.928	3063
554.270	3086
554.612	3106
554.954	3123
555.296	3139
555.638	3154
555.980	3170
556.322	3189
556.663	3215
557.005	3248
557.347	3290
557.689	3334
558.030	3377
558.372	3417
558.713	3454
559.055	3490
559.396	3525
559.738	3563
560.079	3602
560.421	3647
560.762	3697
561.103	3752
561.444	3813
561.786	3875
562.127	3943
562.468	4015
562.809	4094
563.150	4182
563.491	4276
563.832	4379
564.173	4498
564.514	4634
564.855	4795
565.195	4992
565.536	5228
565.877	5502
566.218	5813
566.558	6164
566.899	6549
567.239	6965
567.580	7401
567.920	7850
568.261	8302
568.601	8767
568.941	9249
569.282	9744
569.622	10258
569.962	10793
570.302	11364
570.643	11955
570.983	12551
571.323	13127
571.663	13683
572.003	14212
572.343	14711
572.683	15179
573.022	15655
573.362	16157
573.702	16676
574.042	17196
574.381	17695
574.721	18172
575.061	18629
575.400	19047
575.740	19418
576.079	19748
576.419	20078
576.758	20452
577.097	20891
577.437	21370
577.776	21883
578.115	22419
578.454	22962
578.794	23463
579.133	23852
579.472	24122
579.811	24283
580.150	24344
580.489	24325
580.828	24271
581.167	24221
581.505	24192
581.844	24172
582.183	24152
582.522	24149
582.860	24159
583.199	24169
583.538	24144
583.876	24042
584.215	23842
584.553	23529
584.891	23111
585.230	22597
585.568	22028
585.906	21449
586.245	20928
586.583	20480
586.921	20108
587.259	19770
587.597	19430
587.935	19079
588.273	18718
588.611	18382
588.949	18085
589.287	17838
589.625	17644
589.963	17492
590.300	17371
590.638	17262
590.976	17139
591.313	16993
591.651	16854
591.989	16733
592.326	16637
592.664	16554
593.001	16486
593.338	16445
593.676	16426
594.013	16438
594.350	16502
594.687	16608
595.025	16726
595.362	16834
595.699	16911
596.036	16961
596.373	16974
596.710	16944
597.047	16884
597.384	16811
597.720	16727
598.057	16660
598.394	16611
598.731	16585
599.067	16587
599.404	16618
599.741	16686
600.077	16783
600.414	16891
600.750	17005
601.087	17092
601.423	17134
601.759	17138
602.096	17110
602.432	17061
602.768	16987
603.104	16882
603.440	16753
603.776	16615
604.112	16466
604.448	16314
604.784	16154
605.120	15983
605.456	15817
605.792	15643
606.128	15459
606.463	15271
606.799	15084
607.135	14911
607.470	14740
607.806	14572
608.142	14407
608.477	14248
608.812	14096
609.148	13942
609.483	13781
609.819	13614
610.154	13457
610.489	13311
610.824	13185
611.159	13079
611.494	12971
611.830	12876
612.165	12782
612.500	12677
612.834	12555
613.169	12416
613.504	12264
613.839	12094
614.174	11901
614.509	11708
614.843	11514
615.178	11331
615.512	11149
615.847	10971
616.182	10794
616.516	10614
616.850	10425
617.185	10228
617.519	10028
617.853	9813
618.188	9589
618.522	9385
618.856	9212
619.190	9061
619.524	8929
619.858	8823
620.192	8739
620.526	8666
620.860	8592
621.194	8522
621.528	8453
621.862	8385
622.195	8301
622.529	8212
622.863	8119
623.196	8028
623.530	7934
623.864	7841
624.197	7747
624.530	7656
624.864	7573
625.197	7488
625.531	7391
625.864	7274
626.197	7149
626.530	7014
626.863	6862
627.196	6697
627.529	6530
627.862	6365
628.195	6203
628.528	6041
628.861	5886
629.194	5747
629.527	5615
629.860	5484
630.192	5355
630.525	5235
630.858	5122
631.190	5016
631.523	4912
631.855	4815
632.188	4731
632.520	4652
632.852	4578
633.185	4502
633.517	4429
633.849	4363
634.182	4302
634.514	4244
634.846	4192
635.178	4145
635.510	4105
635.842	4068
636.174	4032
636.506	3996
636.837	3961
637.169	3926
637.501	3888
637.833	3848
638.164	3802
638.496	3752
638.828	3696
639.159	3632
639.491	3563
639.822	3491
640.154	3419
640.485	3348
640.816	3277
641.147	3208
641.479	3141
641.810	3076
642.141	3012
642.472	2950
642.803	2888
643.134	2829
643.465	2779
643.796	2739
644.127	2710
644.458	2695
644.789	2694
645.119	2709
645.450	2733
645.781	2761
646.111	2788
646.442	2812
646.773	2831
647.103	2845
647.433	2858
647.764	2871
648.094	2889
648.425	2912
648.755	2940
649.085	2972
649.415	3006
649.745	3041
650.075	3077
650.405	3118
650.735	3207
651.065	3847
651.395	5829
651.725	9089
652.055	12714
652.385	16334
652.715	19952
653.044	23573
653.374	27199
653.704	30832
654.033	34096
654.363	36123
654.692	37475
655.022	38357
655.351	38935
655.680	39293
656.010	39489
656.339	39577
656.668	39601
656.997	39590
657.326	39555
657.655	39458
657.984	38797
658.313	36783
658.642	33480
658.971	29801
659.300	26122
659.629	22444
659.958	18766
660.286	15089
660.615	11413
660.944	8114
661.272	6056
661.601	4675
661.929	3762
662.258	3147
662.586	2745
662.915	2499
663.243	2357
663.571	2277
663.899	2228
664.228	2197
664.556	2176
664.884	2162
665.212	2152
665.540	2144
665.868	2141
666.196	2139
666.524	2138
666.852	2139
667.179	2148
667.507	2164
667.835	2188
668.162	2219
668.490	2258
668.818	2304
669.145	2353
669.473	2401
669.800	2446
670.127	2486
670.455	2518
670.782	2546
671.109	2570
671.436	2591
671.764	2607
672.091	2620
672.418	2632
672.745	2642
673.072	2652
673.399	2663
673.726	2675
674.053	2684
674.379	2688
674.706	2687
675.033	2685
675.359	2681
675.686	2675
676.013	2672
676.339	2674
676.666	2682
676.992	2702
677.318	2729
677.645	2761
677.971	2790
678.297	2817
678.624	2843
678.950	2868
679.276	2891
679.602	2913
679.928	2937
680.254	2966
680.580	3003
680.906	3050
681.232	3108
681.558	3169
681.883	3228
682.209	3284
682.535	3336
682.860	3383
683.186	3423
683.511	3455
683.837	3474
684.162	3490
684.488	3502
684.813	3515
685.138	3528
685.464	3538
685.789	3546
686.114	3555
686.439	3567
686.764	3580
687.089	3588
687.414	3589
687.739	3578
688.064	3556
688.389	3529
688.714	3496
689.039	3461
689.363	3425
689.688	3384
690.013	3345
690.337	3310
690.662	3280
690.986	3254
691.311	3228
691.635	3201
691.959	3176
692.284	3160
692.608	3155
692.932	3161
693.256	3171
693.580	3184
693.904	3201
694.228	3220
694.552	3238
694.876	3247
695.200	3244
695.524	3230
695.848	3209
696.172	3183
696.495	3156
696.819	3127
697.143	3097
697.466	3066
697.790	3041
698.113	3023
698.437	3014
698.760	3012
699.083	3010
699.407	3001
699.730	2985
700.053	2961
700.376	2927
700.699	2880
701.022	2821
701.345	2757
701.668	2697
701.991	2646
702.314	2612
702.637	2596
702.960	2601
703.283	2628
703.605	2676
703.928	2740
704.251	2813
704.573	2887
704.896	2952
705.218	3006
705.540	3049
705.863	3083
706.185	3112
706.507	3136
706.830	3158
707.152	3182
707.474	3208
707.796	3237
708.118	3267
708.440	3297
708.762	3322
709.084	3342
709.406	3354
709.728	3355
710.049	3349
710.371	3335
710.693	3313
711.014	3288
711.336	3264
711.658	3242
711.979	3223
712.301	3205
712.622	3186
712.943	3164
713.265	3138
713.586	3110
713.907	3083
714.228	3059
714.549	3040
714.870	3026
715.191	3020
715.512	3019
715.833	3014
716.154	3006
716.475	2993
716.796	2973
717.117	2945
717.437	2912
717.758	2875
718.078	2837
718.399	2800
718.719	2768
719.040	2739
719.360	2717
719.681	2701
720.001	2690
720.321	2684
720.642	2681
720.962	2684
721.282	2690
721.602	2698
721.922	2708
722.242	2721
722.562	2738
722.882	2759
723.202	2778
723.521	2796
723.841	2814
724.161	2834
724.481	2853
724.800	2872
725.120	2898
725.439	2928
725.759	2963
726.078	3002
726.398	3049
726.717	3108
727.036	3174
727.355	3244
727.675	3312
727.994	3377
728.313	3439
728.632	3493
728.951	3537
729.270	3576
729.589	3613
729.908	3657
730.226	3707
730.545	3762
730.864	3821
731.182	3886
731.501	3951
731.820	4013
732.138	4067
732.457	4114
732.775	4158
733.093	4193
733.412	4213
733.730	4219
734.048	4209
734.367	4191
734.685	4165
735.003	4136
735.321	4110
735.639	4089
735.957	4072
736.275	4056
736.593	4033
736.910	3998
737.228	3950
737.546	3889
737.863	3817
738.181	3738
738.499	3654
738.816	3572
739.134	3492
739.451	3410
739.768	3328
740.086	3249
740.403	3175
740.720	3107
741.038	3043
741.355	2981
741.672	2920
741.989	2857
742.306	2792
742.623	2726
742.940	2661
743.257	2601
743.573	2549
743.890	2506
744.207	2474
744.523	2451
744.840	2436
745.157	2427
745.473	2425
745.790	2433
746.106	2452
746.422	2480
746.739	2516
747.055	2558
747.371	2607
747.687	2657
748.004	2706
748.320	2748
748.636	2786
748.952	2823
749.268	2861
749.584	2897
749.899	2930
750.215	2964
750.531	3002
750.847	3045
751.162	3087
751.478	3128
751.793	3172
752.109	3218
752.424	3267
752.740	3317
753.055	3374
753.370	3443
753.686	3522
754.001	3608
754.316	3698
754.631	3793
754.946	3894
755.261	4001
755.576	4103
755.891	4203
756.206	4302
756.521	4406
756.836	4511
757.150	4612
757.465	4702
757.780	4778
758.094	4843
758.409	4892
758.723	4923
759.038	4936
759.352	4936
759.667	4922
759.981	4897
760.295	4872
760.609	4853
760.923	4841
761.238	4833
761.552	4828
761.866	4821
762.180	4811
762.493	4785
762.807	4734
763.121	4657
763.435	4562
763.749	4457
764.062	4358
764.376	4275
764.689	4217
765.003	4186
765.316	4181
765.630	4194
765.943	4217
766.257	4244
766.570	4267
766.883	4273
767.196	4262
767.509	4234
767.822	4193
768.135	4140
768.448	4082
768.761	4022
769.074	3969
769.387	3929
769.700	3904
770.013	3888
770.325	3876
770.638	3858
770.950	3826
771.263	3774
771.575	3703
771.888	3612
772.200	3506
772.513	3391
772.825	3270
773.137	3146
773.449	3023
773.761	2905
774.074	2796
774.386	2698
774.698	2616
775.010	2549
775.321	2500
775.633	2468
775.945	2450
776.257	2439
776.568	2435
776.880	2442
777.192	2459
777.503	2485
777.815	2519
778.126	2560
778.438	2612
778.749	2667
779.060	2720
779.372	2770
779.683	2819
779.994	2863
780.305	2898
780.616	2921
780.927	2936
781.238	2940
781.549	2933
781.860	2914
782.171	2887
782.481	2857
782.792	2826
783.103	2796
783.413	2764
783.724	2729
784.034	2696
784.345	2665
784.655	2637
784.966	2609
785.276	2578
785.586	2549
785.896	2519
786.207	2489
786.517	2456
786.827	2424
787.137	2394
787.447	2364
787.757	2336
788.066	2310
788.376	2284
788.686	2258
788.996	2232
789.305	2206
789.615	2186
789.925	2174
790.234	2171
790.544	2176
790.853	2186
791.162	2197
791.472	2206
791.781	2210
792.090	2205
792.399	2192
792.708	2171
793.017	2147
793.326	2125
793.635	2103
793.944	2084
794.253	2067
794.562	2055
794.871	2047
795.179	2042
795.488	2035
795.797	2023
796.105	2005
796.414	1974
796.722	1933
797.031	1881
797.339	1818
797.647	1747
797.956	1674
798.264	1606
798.572	1549
798.880	1505
799.188	1472
799.496	1448
799.804	1431
800.112	1418
800.420	1406
800.728	1395
801.035	1380
801.343	1363
801.651	1350
801.958	1346
802.266	1352
802.573	1363
802.881	1377
803.188	1395
803.496	1415
803.803	1436
804.110	1454
804.417	1470
804.724	1485
805.032	1498
805.339	1509
805.646	1517
805.953	1521
806.259	1522
806.566	1519
806.873	1513
807.180	1505
807.486	1497
807.793	1487
808.100	1472
808.406	1447
808.713	1414
809.019	1375
809.326	1336
809.632	1299
809.938	1264
810.244	1232
810.551	1205
810.857	1183
811.163	1163
811.469	1143
811.775	1120
812.081	1097
812.387	1076
812.692	1060
812.998	1047
813.304	1036
813.610	1028
813.915	1021
814.221	1016
814.526	1011
814.832	1007
815.137	1003
815.443	997
815.748	987
816.053	974
816.358	960
816.664	948
816.969	936
817.274	926
817.579	918
817.884	913
818.189	912
818.493	911
818.798	908
819.103	902
819.408	893
819.712	883
820.017	872
820.321	859
820.626	848
820.930	837
821.235	830
821.539	826
821.843	826
822.148	827
822.452	829
822.756	828
823.060	825
823.364	820
823.668	813
823.972	804
824.276	795
824.580	788
824.883	785
825.187	783
825.491	783
825.795	783
826.098	783
826.402	781
826.705	778
827.008	773
827.312	765
827.615	752
827.918	737
828.222	719
828.525	701
828.828	684
829.131	667
829.434	649
829.737	633
830.040	620
830.343	610
830.645	601
830.948	592
831.251	583
831.553	575
831.856	569
832.159	563
832.461	555
832.764	547
833.066	540
833.368	533
833.671	528
833.973	525
834.275	521
834.577	517
834.879	513
835.181	508
835.483	502
835.785	495
836.087	486
836.389	476
836.690	464
836.992	451
837.294	438
837.595	424
837.897	409
838.198	394
838.500	380
838.801	368
839.103	357
839.404	349
839.705	341
840.006	334
840.307	329
840.608	325
840.910	323
841.210	320
841.511	318
841.812	315
842.113	311
842.414	306
842.715	301
843.015	294
843.316	288
843.616	282
843.917	276
844.217	271
844.518	267
844.818	264
845.118	262
845.419	260
845.719	259
846.019	257
846.319	256
846.619	255
846.919	254
847.219	253
847.519	251
847.819	250
848.118	250
848.418	254
848.718	261
849.017	273
849.317	291
849.616	313
849.916	337
850.215	365
850.515	395
850.814	424
851.113	451
851.412	475
851.712	496
852.011	517
852.310	536
852.609	553
852.908	568
853.206	581
853.505	594
853.804	604
854.103	613
854.401	620
854.700	622
854.999	621
855.297	613
855.595	600
855.894	583
856.192	561
856.491	537
856.789	511
857.087	484
857.385	458
857.683	435
857.981	414
858.279	395
858.577	376
858.875	361
859.173	348
859.471	337
859.768	328
860.066	320
860.363	314
860.661	309
860.959	305
861.256	301
861.553	296
861.851	291
862.148	285
862.445	280
862.742	274
863.039	270
863.337	265
863.634	263
863.931	261
864.227	260
864.524	259
864.821	259
865.118	257
865.415	255
865.711	252
866.008	248
866.304	243
866.601	238
866.897	234
867.194	231
867.490	228
867.786	227
868.082	227
868.379	227
868.675	228
868.971	228
869.267	228
869.563	228
869.859	227
870.154	226
870.450	225
870.746	224
871.042	223
871.337	223
871.633	224
871.928	225
872.224	226
872.519	229
872.815	230
873.110	231
873.405	231
873.700	230
873.995	230
874.291	229
874.586	230
874.881	231
875.175	234
875.470	238
875.765	242
876.060	247
876.355	252
876.649	256
876.944	261
877.238	265
877.533	269
877.827	272
878.122	275
878.416	276
878.710	275
879.005	275
879.299	273
879.593	272
879.887	271
880.181	270
880.475	268
880.769	266
881.063	264
881.356	261
881.650	257
881.944	253
882.238	208
882.531	203
882.825	203
883.118	203
883.412	199
883.705	201
883.998	206
884.291	213
884.585	214
884.878	225
>>>>>>>>>> END of Data <<<<<<<<<<