Date	2021年06月15日火曜日 05時19分10秒
Spectrometers	USB2+H05879
ダーク	使用
リファレンス	使用
積分時間[msec]	10
平均回数	280
ｽﾑｰｼﾞﾝｸﾞ	10
Electrical Dark	USE
ピクセル数	2048
計測モード	吸光度
保存開始波長[nm]	190.664
保存終了波長[nm]	884.878
保存ﾋﾟｯﾁ波長[nm]	全波長

>>>>>>>>>> Data Start <<<<<<<<<<<<
190.664	0.000000
191.040	0.000000
191.415	0.000000
191.791	-2.247993
192.166	-0.611769
192.542	-0.842221
192.917	0.000000
193.293	-0.506093
193.668	-0.431771
194.044	-1.183642
194.419	0.000000
194.794	-1.380485
195.170	-1.309532
195.545	-1.228504
195.920	-1.101731
196.296	-0.982273
196.671	-0.824269
197.046	-0.676944
197.421	-0.620145
197.796	-0.613728
198.171	-0.570555
198.546	-0.517485
198.922	-0.466918
199.297	-0.444942
199.672	-0.416365
200.047	-0.400034
200.422	-0.371054
200.796	-0.364135
201.171	-0.340908
201.546	-0.334302
201.921	-0.324833
202.296	-0.316676
202.671	-0.283111
203.045	-0.252627
203.420	-0.243140
203.795	-0.228074
204.170	-0.216203
204.544	-0.209804
204.919	-0.206537
205.294	-0.205809
205.668	-0.190840
206.043	-0.180025
206.417	-0.187847
206.792	-0.180542
207.166	-0.170023
207.541	-0.168873
207.915	-0.172976
208.289	-0.160159
208.664	-0.157003
209.038	-0.159622
209.412	-0.141452
209.787	-0.124605
210.161	-0.108794
210.535	-0.115984
210.909	-0.111939
211.284	-0.098982
211.658	-0.105151
212.032	-0.109147
212.406	-0.110822
212.780	-0.104496
213.154	-0.100707
213.528	-0.104071
213.902	-0.095198
214.276	-0.081668
214.650	-0.082997
215.024	-0.084933
215.398	-0.078827
215.772	-0.067207
216.145	-0.066616
216.519	-0.060542
216.893	-0.063144
217.267	-0.072790
217.640	-0.076121
218.014	-0.064090
218.388	-0.054995
218.761	-0.057446
219.135	-0.049772
219.508	-0.050346
219.882	-0.052049
220.256	-0.052091
220.629	-0.051593
221.003	-0.055218
221.376	-0.048476
221.749	-0.059298
222.123	-0.062705
222.496	-0.067756
222.869	-0.057996
223.243	-0.059693
223.616	-0.053978
223.989	-0.055691
224.362	-0.047516
224.736	-0.043091
225.109	-0.041649
225.482	-0.046160
225.855	-0.058919
226.228	-0.071422
226.601	-0.071637
226.974	-0.071264
227.347	-0.058571
227.720	-0.057094
228.093	-0.056543
228.466	-0.056229
228.839	-0.052815
229.212	-0.058318
229.585	-0.063394
229.957	-0.057627
230.330	-0.054287
230.703	-0.052849
231.076	-0.047995
231.448	-0.056881
231.821	-0.057526
232.194	-0.062184
232.566	-0.059980
232.939	-0.058587
233.311	-0.057955
233.684	-0.052448
234.056	-0.048105
234.429	-0.048044
234.801	-0.057716
235.174	-0.054068
235.546	-0.060975
235.918	-0.067064
236.291	-0.065338
236.663	-0.058349
237.035	-0.053134
237.408	-0.043345
237.780	-0.039033
238.152	-0.036854
238.524	-0.045187
238.896	-0.039635
239.268	-0.035764
239.641	-0.035635
240.013	-0.022617
240.385	-0.018743
240.757	-0.025990
241.129	-0.027212
241.500	-0.028871
241.872	-0.023430
242.244	-0.019032
242.616	-0.014630
242.988	-0.023451
243.360	-0.011812
243.731	-0.000565
244.103	-0.002855
244.475	-0.004920
244.847	-0.005059
245.218	-0.002610
245.590	-0.002224
245.961	0.005109
246.333	0.004118
246.705	-0.009704
247.076	-0.010809
247.448	-0.009632
247.819	-0.018195
248.190	-0.009538
248.562	-0.006251
248.933	-0.000927
249.305	0.008790
249.676	0.012795
250.047	0.006186
250.418	0.004477
250.790	0.009819
251.161	0.009152
251.532	0.008671
251.903	0.007049
252.274	0.009694
252.645	0.013509
253.016	0.007765
253.387	-0.001512
253.758	-0.010512
254.129	-0.009540
254.500	-0.000142
254.871	0.003149
255.242	0.009084
255.613	0.012988
255.984	0.006008
256.355	0.009211
256.725	0.009238
257.096	0.006251
257.467	0.001945
257.838	0.004711
258.208	0.005587
258.579	0.001837
258.949	-0.001501
259.320	-0.000087
259.690	0.002601
260.061	0.006543
260.431	0.009166
260.802	0.016283
261.172	0.022438
261.543	0.031821
261.913	0.033515
262.283	0.032627
262.654	0.027850
263.024	0.026310
263.394	0.024346
263.764	0.027099
264.135	0.023218
264.505	0.022946
264.875	0.025082
265.245	0.027546
265.615	0.032090
265.985	0.035675
266.355	0.044135
266.725	0.041605
267.095	0.040908
267.465	0.042807
267.835	0.035662
268.205	0.029435
268.575	0.029011
268.944	0.031947
269.314	0.028343
269.684	0.034592
270.054	0.027922
270.423	0.035691
270.793	0.037901
271.163	0.042810
271.532	0.041501
271.902	0.045248
272.271	0.051116
272.641	0.050453
273.010	0.046139
273.380	0.039999
273.749	0.034237
274.119	0.036627
274.488	0.051122
274.857	0.053553
275.227	0.056812
275.596	0.061271
275.965	0.066999
276.335	0.068616
276.704	0.061773
277.073	0.059346
277.442	0.054534
277.811	0.061626
278.180	0.064937
278.549	0.060347
278.918	0.053031
279.287	0.053490
279.656	0.060539
280.025	0.058931
280.394	0.052091
280.763	0.058141
281.132	0.064599
281.501	0.068251
281.869	0.062742
282.238	0.056670
282.607	0.053151
282.976	0.051604
283.344	0.056922
283.713	0.058728
284.081	0.056528
284.450	0.064530
284.819	0.071184
285.187	0.083406
285.556	0.081921
285.924	0.077243
286.292	0.078451
286.661	0.082623
287.029	0.084447
287.398	0.082702
287.766	0.081993
288.134	0.093272
288.502	0.087637
288.871	0.087064
289.239	0.094029
289.607	0.097236
289.975	0.094765
290.343	0.100824
290.711	0.105085
291.079	0.102358
291.447	0.097240
291.815	0.102453
292.183	0.109315
292.551	0.106692
292.919	0.102635
293.287	0.099290
293.655	0.107886
294.022	0.106184
294.390	0.111219
294.758	0.113663
295.126	0.111631
295.493	0.113298
295.861	0.111225
296.229	0.113820
296.596	0.117979
296.964	0.113830
297.331	0.114789
297.699	0.123866
298.066	0.128061
298.434	0.128017
298.801	0.134300
299.168	0.145761
299.536	0.148005
299.903	0.140236
300.270	0.145752
300.638	0.150163
301.005	0.163754
301.372	0.163091
301.739	0.167989
302.106	0.166956
302.473	0.179139
302.840	0.188408
303.207	0.205366
303.574	0.223394
303.941	0.235010
304.308	0.244631
304.675	0.260445
305.042	0.279216
305.409	0.293750
305.776	0.303926
306.143	0.321271
306.509	0.331931
306.876	0.350750
307.243	0.370515
307.610	0.399604
307.976	0.423602
308.343	0.449019
308.709	0.478305
309.076	0.514197
309.442	0.542150
309.809	0.569279
310.175	0.596502
310.542	0.623822
310.908	0.645465
311.275	0.666198
311.641	0.702821
312.007	0.732617
312.373	0.757900
312.740	0.785178
313.106	0.806108
313.472	0.840095
313.838	0.869109
314.204	0.893520
314.570	0.910638
314.936	0.933725
315.302	0.956134
315.668	0.977239
316.034	1.002135
316.400	1.027730
316.766	1.039988
317.132	1.065921
317.498	1.084842
317.864	1.097316
318.230	1.109946
318.595	1.125982
318.961	1.143038
319.327	1.157963
319.692	1.167513
320.058	1.178007
320.424	1.185717
320.789	1.201306
321.155	1.208598
321.520	1.220686
321.886	1.235708
322.251	1.248538
322.616	1.261003
322.982	1.267348
323.347	1.275487
323.712	1.282900
324.078	1.287136
324.443	1.292664
324.808	1.296046
325.173	1.302892
325.539	1.309248
325.904	1.316475
326.269	1.320469
326.634	1.322748
326.999	1.325348
327.364	1.331539
327.729	1.336473
328.094	1.338662
328.459	1.341677
328.823	1.345445
329.188	1.347770
329.553	1.347950
329.918	1.351783
330.283	1.353020
330.647	1.356174
331.012	1.359319
331.377	1.360591
331.741	1.361916
332.106	1.365511
332.470	1.367798
332.835	1.370700
333.199	1.370261
333.564	1.372052
333.928	1.373630
334.293	1.375425
334.657	1.375458
335.021	1.375846
335.386	1.376333
335.750	1.377579
336.114	1.378573
336.478	1.379848
336.843	1.379103
337.207	1.379575
337.571	1.379380
337.935	1.379236
338.299	1.379369
338.663	1.377973
339.027	1.378680
339.391	1.380360
339.755	1.381095
340.119	1.381292
340.483	1.380134
340.846	1.381754
341.210	1.382538
341.574	1.383374
341.938	1.383430
342.301	1.384392
342.665	1.384802
343.029	1.385181
343.392	1.385781
343.756	1.385216
344.119	1.384511
344.483	1.386298
344.846	1.387269
345.210	1.388825
345.573	1.388968
345.937	1.388965
346.300	1.389178
346.663	1.389621
347.027	1.389997
347.390	1.389717
347.753	1.388916
348.116	1.389789
348.479	1.390324
348.843	1.390167
349.206	1.389551
349.569	1.388827
349.932	1.389648
350.295	1.389819
350.658	1.390317
351.021	1.391441
351.383	1.392710
351.746	1.393141
352.109	1.393362
352.472	1.393789
352.835	1.393477
353.197	1.394413
353.560	1.395447
353.923	1.396149
354.285	1.395847
354.648	1.396208
355.011	1.396110
355.373	1.397931
355.736	1.398617
356.098	1.398173
356.461	1.398185
356.823	1.399312
357.185	1.400939
357.548	1.400840
357.910	1.401930
358.272	1.401741
358.635	1.401058
358.997	1.401195
359.359	1.403373
359.721	1.403321
360.083	1.404177
360.445	1.405256
360.807	1.405615
361.169	1.405625
361.531	1.406474
361.893	1.407208
362.255	1.407542
362.617	1.408622
362.979	1.408963
363.341	1.407968
363.703	1.409317
364.064	1.410241
364.426	1.410845
364.788	1.411547
365.149	1.412821
365.511	1.413305
365.873	1.414707
366.234	1.416327
366.596	1.417227
366.957	1.416481
367.319	1.417184
367.680	1.417712
368.042	1.417225
368.403	1.418734
368.764	1.420088
369.126	1.420979
369.487	1.422011
369.848	1.421842
370.209	1.422455
370.570	1.422972
370.931	1.424736
371.293	1.425008
371.654	1.425995
372.015	1.427110
372.376	1.428454
372.737	1.428695
373.098	1.429104
373.458	1.429398
373.819	1.430232
374.180	1.431307
374.541	1.432724
374.902	1.433962
375.263	1.435288
375.623	1.436691
375.984	1.437445
376.345	1.437982
376.705	1.439533
377.066	1.440164
377.426	1.441614
377.787	1.442556
378.147	1.442854
378.508	1.443877
378.868	1.444960
379.228	1.445357
379.589	1.445378
379.949	1.444978
380.309	1.445928
380.670	1.446925
381.030	1.447491
381.390	1.448171
381.750	1.448213
382.110	1.448554
382.470	1.449049
382.830	1.449432
383.190	1.450666
383.550	1.450747
383.910	1.451734
384.270	1.451237
384.630	1.451929
384.990	1.452906
385.350	1.453523
385.709	1.455165
386.069	1.456431
386.429	1.457026
386.788	1.458689
387.148	1.459731
387.508	1.460945
387.867	1.461680
388.227	1.461812
388.586	1.462457
388.946	1.463605
389.305	1.464839
389.665	1.465770
390.024	1.466517
390.383	1.467152
390.743	1.467215
391.102	1.467570
391.461	1.468027
391.820	1.469425
392.179	1.469746
392.539	1.470208
392.898	1.471180
393.257	1.471250
393.616	1.471778
393.975	1.472659
394.334	1.473182
394.693	1.473864
395.051	1.474730
395.410	1.475205
395.769	1.476708
396.128	1.478302
396.487	1.478599
396.845	1.478348
397.204	1.478516
397.563	1.478489
397.921	1.478061
398.280	1.477929
398.638	1.478098
398.997	1.477995
399.355	1.477445
399.714	1.478105
400.072	1.477710
400.431	1.477035
400.789	1.477004
401.147	1.476634
401.506	1.476258
401.864	1.475476
402.222	1.474784
402.580	1.474275
402.938	1.473357
403.297	1.472339
403.655	1.471622
404.013	1.470824
404.371	1.470094
404.729	1.469269
405.087	1.469148
405.444	1.468989
405.802	1.468624
406.160	1.468473
406.518	1.467735
406.876	1.466841
407.233	1.465930
407.591	1.465799
407.949	1.465790
408.306	1.465500
408.664	1.465171
409.022	1.464982
409.379	1.464535
409.737	1.463684
410.094	1.462701
410.451	1.462243
410.809	1.461789
411.166	1.460344
411.523	1.460137
411.881	1.460113
412.238	1.459548
412.595	1.457934
412.952	1.457452
413.310	1.457060
413.667	1.456802
414.024	1.456519
414.381	1.456340
414.738	1.455542
415.095	1.454397
415.452	1.453534
415.809	1.452227
416.165	1.451304
416.522	1.449665
416.879	1.448851
417.236	1.448084
417.593	1.447408
417.949	1.446578
418.306	1.445752
418.663	1.446201
419.019	1.444718
419.376	1.443806
419.732	1.442889
420.089	1.443025
420.445	1.442406
420.802	1.441862
421.158	1.440214
421.514	1.439139
421.871	1.437932
422.227	1.436641
422.583	1.435761
422.939	1.434292
423.295	1.433351
423.652	1.431976
424.008	1.431286
424.364	1.429784
424.720	1.429037
425.076	1.428064
425.432	1.426861
425.788	1.425708
426.143	1.423672
426.499	1.422653
426.855	1.421515
427.211	1.420500
427.567	1.418855
427.922	1.417629
428.278	1.415083
428.634	1.414168
428.989	1.412674
429.345	1.411504
429.700	1.410606
430.056	1.409358
430.411	1.408366
430.767	1.407223
431.122	1.405562
431.478	1.403560
431.833	1.402240
432.188	1.400669
432.543	1.399121
432.899	1.397089
433.254	1.394585
433.609	1.392982
433.964	1.391117
434.319	1.388574
434.674	1.386350
435.029	1.384042
435.384	1.381617
435.739	1.380040
436.094	1.378320
436.449	1.376733
436.804	1.374939
437.158	1.372723
437.513	1.370694
437.868	1.368659
438.223	1.366560
438.577	1.364282
438.932	1.362759
439.287	1.360710
439.641	1.358588
439.996	1.356050
440.350	1.354111
440.704	1.352353
441.059	1.350119
441.413	1.347569
441.768	1.345586
442.122	1.343423
442.476	1.341034
442.830	1.338649
443.185	1.336412
443.539	1.333814
443.893	1.331192
444.247	1.328443
444.601	1.326431
444.955	1.323311
445.309	1.320331
445.663	1.317383
446.017	1.314724
446.371	1.311572
446.724	1.308634
447.078	1.305372
447.432	1.302410
447.786	1.299654
448.139	1.296265
448.493	1.293056
448.847	1.289919
449.200	1.286718
449.554	1.283628
449.907	1.280450
450.261	1.277081
450.614	1.274041
450.968	1.270816
451.321	1.267242
451.674	1.263845
452.027	1.259752
452.381	1.256725
452.734	1.253504
453.087	1.250277
453.440	1.246664
453.793	1.243110
454.146	1.239508
454.499	1.236340
454.852	1.232891
455.205	1.229030
455.558	1.226115
455.911	1.222697
456.264	1.219354
456.617	1.216245
456.970	1.212882
457.322	1.210177
457.675	1.207443
458.028	1.204447
458.380	1.201447
458.733	1.198795
459.086	1.196098
459.438	1.193510
459.791	1.190263
460.143	1.187332
460.496	1.184164
460.848	1.181417
461.200	1.178496
461.553	1.175241
461.905	1.172395
462.257	1.169326
462.609	1.166632
462.961	1.163633
463.314	1.160732
463.666	1.157891
464.018	1.154834
464.370	1.152302
464.722	1.149211
465.074	1.146124
465.426	1.143422
465.777	1.140819
466.129	1.138223
466.481	1.135556
466.833	1.132789
467.184	1.130612
467.536	1.127752
467.888	1.124986
468.239	1.121862
468.591	1.118854
468.943	1.115856
469.294	1.112540
469.646	1.109420
469.997	1.106090
470.348	1.102890
470.700	1.099949
471.051	1.097383
471.402	1.094742
471.754	1.091682
472.105	1.088988
472.456	1.086418
472.807	1.083662
473.158	1.080844
473.509	1.078342
473.860	1.076066
474.211	1.073758
474.562	1.071217
474.913	1.068839
475.264	1.066340
475.615	1.064257
475.966	1.062047
476.316	1.059878
476.667	1.057504
477.018	1.055443
477.368	1.053284
477.719	1.050847
478.070	1.048583
478.420	1.046302
478.771	1.043870
479.121	1.041717
479.472	1.039534
479.822	1.037316
480.172	1.035139
480.523	1.032980
480.873	1.030456
481.223	1.027304
481.573	1.024411
481.924	1.021644
482.274	1.018984
482.624	1.016711
482.974	1.014537
483.324	1.012820
483.674	1.011301
484.024	1.009787
484.374	1.008372
484.724	1.006919
485.073	1.005544
485.423	1.004162
485.773	1.002627
486.123	1.001239
486.472	0.999834
486.822	0.998353
487.172	0.996977
487.521	0.995495
487.871	0.993977
488.220	0.992421
488.570	0.990964
488.919	0.989067
489.268	0.986822
489.618	0.984433
489.967	0.981518
490.316	0.978323
490.666	0.974727
491.015	0.971373
491.364	0.968336
491.713	0.965372
492.062	0.962708
492.411	0.960341
492.760	0.957990
493.109	0.955527
493.458	0.953232
493.807	0.950934
494.156	0.948643
494.505	0.946303
494.853	0.943968
495.202	0.941606
495.551	0.939431
495.900	0.937054
496.248	0.934691
496.597	0.932275
496.945	0.929900
497.294	0.927712
497.642	0.925440
497.991	0.923081
498.339	0.920671
498.688	0.918531
499.036	0.916506
499.384	0.914486
499.732	0.912265
500.081	0.909931
500.429	0.907769
500.777	0.905636
501.125	0.903478
501.473	0.901456
501.821	0.899337
502.169	0.897345
502.517	0.895407
502.865	0.893313
503.213	0.891305
503.561	0.889387
503.908	0.887491
504.256	0.885451
504.604	0.883355
504.952	0.881330
505.299	0.879333
505.647	0.877354
505.994	0.875299
506.342	0.873083
506.689	0.871002
507.037	0.869094
507.384	0.867235
507.732	0.865372
508.079	0.863515
508.426	0.861564
508.774	0.859529
509.121	0.857618
509.468	0.855795
509.815	0.853965
510.162	0.852096
510.509	0.850253
510.856	0.848378
511.203	0.846628
511.550	0.844921
511.897	0.843175
512.244	0.841461
512.591	0.839720
512.938	0.837973
513.284	0.836263
513.631	0.834625
513.978	0.832862
514.324	0.831073
514.671	0.829252
515.018	0.827529
515.364	0.825748
515.711	0.824161
516.057	0.822557
516.403	0.820889
516.750	0.819263
517.096	0.817615
517.443	0.816079
517.789	0.814453
518.135	0.812817
518.481	0.811217
518.827	0.809654
519.173	0.808045
519.519	0.806405
519.865	0.804815
520.211	0.803259
520.557	0.801576
520.903	0.799879
521.249	0.798236
521.595	0.796590
521.941	0.794938
522.287	0.793268
522.632	0.791384
522.978	0.789630
523.324	0.787909
523.669	0.786354
524.015	0.784493
524.360	0.782788
524.706	0.781121
525.051	0.779561
525.397	0.777910
525.742	0.776329
526.087	0.774705
526.433	0.773175
526.778	0.771717
527.123	0.770145
527.468	0.768507
527.813	0.767037
528.158	0.765497
528.504	0.763861
528.849	0.762125
529.193	0.760495
529.538	0.758805
529.883	0.756974
530.228	0.755107
530.573	0.753369
530.918	0.751470
531.263	0.749779
531.607	0.748036
531.952	0.746363
532.296	0.744616
532.641	0.742955
532.986	0.741131
533.330	0.739285
533.675	0.737591
534.019	0.735694
534.363	0.733887
534.708	0.732083
535.052	0.730274
535.396	0.728512
535.741	0.726794
536.085	0.724975
536.429	0.723053
536.773	0.721112
537.117	0.719368
537.461	0.717411
537.805	0.715357
538.149	0.713214
538.493	0.710979
538.837	0.708883
539.181	0.706618
539.524	0.704423
539.868	0.702159
540.212	0.699950
540.556	0.697765
540.899	0.695448
541.243	0.693225
541.586	0.690968
541.930	0.688714
542.273	0.686358
542.617	0.683949
542.960	0.681483
543.304	0.678992
543.647	0.676431
543.990	0.673867
544.333	0.671254
544.677	0.668699
545.020	0.666219
545.363	0.663749
545.706	0.661324
546.049	0.658766
546.392	0.656265
546.735	0.653617
547.078	0.651031
547.421	0.648319
547.764	0.645591
548.106	0.642733
548.449	0.639752
548.792	0.636929
549.135	0.634057
549.477	0.631167
549.820	0.628434
550.162	0.625588
550.505	0.622639
550.847	0.619826
551.190	0.616765
551.532	0.613596
551.875	0.610261
552.217	0.606791
552.559	0.603499
552.901	0.600177
553.244	0.596869
553.586	0.593712
553.928	0.590712
554.270	0.587698
554.612	0.584740
554.954	0.581720
555.296	0.578721
555.638	0.575663
555.980	0.572252
556.322	0.568663
556.663	0.565049
557.005	0.561251
557.347	0.557668
557.689	0.554196
558.030	0.550624
558.372	0.547121
558.713	0.543684
559.055	0.540350
559.396	0.536971
559.738	0.533381
560.079	0.529814
560.421	0.526332
560.762	0.522852
561.103	0.519381
561.444	0.515976
561.786	0.512642
562.127	0.509323
562.468	0.505923
562.809	0.502480
563.150	0.499003
563.491	0.495453
563.832	0.491725
564.173	0.487917
564.514	0.483884
564.855	0.479756
565.195	0.475604
565.536	0.471498
565.877	0.467346
566.218	0.463353
566.558	0.459404
566.899	0.455617
567.239	0.452118
567.580	0.448857
567.920	0.445853
568.261	0.443026
568.601	0.440398
568.941	0.437839
569.282	0.435387
569.622	0.432974
569.962	0.430548
570.302	0.428161
570.643	0.425851
570.983	0.423646
571.323	0.421547
571.663	0.419520
572.003	0.417482
572.343	0.415424
572.683	0.413244
573.022	0.410974
573.362	0.408580
573.702	0.406219
574.042	0.403912
574.381	0.401594
574.721	0.399348
575.061	0.397164
575.400	0.395134
575.740	0.393110
576.079	0.391143
576.419	0.389041
576.758	0.386869
577.097	0.384634
577.437	0.382316
577.776	0.379971
578.115	0.377654
578.454	0.375472
578.794	0.373500
579.133	0.371697
579.472	0.370049
579.811	0.368533
580.150	0.367027
580.489	0.365493
580.828	0.363826
581.167	0.362102
581.505	0.360390
581.844	0.358660
582.183	0.356925
582.522	0.355227
582.860	0.353559
583.199	0.351953
583.538	0.350468
583.876	0.349024
584.215	0.347563
584.553	0.346125
584.891	0.344678
585.230	0.343196
585.568	0.341612
585.906	0.339943
586.245	0.338341
586.583	0.336811
586.921	0.335411
587.259	0.334175
587.597	0.332974
587.935	0.331731
588.273	0.330380
588.611	0.328860
588.949	0.327252
589.287	0.325577
589.625	0.323869
589.963	0.322291
590.300	0.320798
590.638	0.319360
590.976	0.317942
591.313	0.316548
591.651	0.315102
591.989	0.313698
592.326	0.312354
592.664	0.311130
593.001	0.309974
593.338	0.308912
593.676	0.307904
594.013	0.306887
594.350	0.305893
594.687	0.304961
595.025	0.304129
595.362	0.303276
595.699	0.302352
596.036	0.301409
596.373	0.300494
596.710	0.299573
597.047	0.298598
597.384	0.297572
597.720	0.296603
598.057	0.295636
598.394	0.294639
598.731	0.293651
599.067	0.292652
599.404	0.291663
599.741	0.290692
600.077	0.289790
600.414	0.288941
600.750	0.288189
601.087	0.287474
601.423	0.286746
601.759	0.285999
602.096	0.285230
602.432	0.284478
602.768	0.283749
603.104	0.283026
603.440	0.282276
603.776	0.281563
604.112	0.280873
604.448	0.280230
604.784	0.279585
605.120	0.278934
605.456	0.278350
605.792	0.277756
606.128	0.277167
606.463	0.276593
606.799	0.275986
607.135	0.275368
607.470	0.274760
607.806	0.274127
608.142	0.273509
608.477	0.272905
608.812	0.272315
609.148	0.271742
609.483	0.271160
609.819	0.270630
610.154	0.270038
610.489	0.269421
610.824	0.268811
611.159	0.268240
611.494	0.267641
611.830	0.267127
612.165	0.266714
612.500	0.266266
612.834	0.265836
613.169	0.265446
613.504	0.264990
613.839	0.264537
614.174	0.264062
614.509	0.263559
614.843	0.263080
615.178	0.262627
615.512	0.262253
615.847	0.261847
616.182	0.261494
616.516	0.261160
616.850	0.260773
617.185	0.260391
617.519	0.260075
617.853	0.259729
618.188	0.259209
618.522	0.258778
618.856	0.258259
619.190	0.257693
619.524	0.257223
619.858	0.256770
620.192	0.256316
620.526	0.255901
620.860	0.255566
621.194	0.255155
621.528	0.254799
621.862	0.254405
622.195	0.254106
622.529	0.253651
622.863	0.253270
623.196	0.252866
623.530	0.252495
623.864	0.252126
624.197	0.251867
624.530	0.251487
624.864	0.251153
625.197	0.250967
625.531	0.250634
625.864	0.250328
626.197	0.250039
626.530	0.249711
626.863	0.249362
627.196	0.248969
627.529	0.248615
627.862	0.248184
628.195	0.247838
628.528	0.247431
628.861	0.247052
629.194	0.246644
629.527	0.246332
629.860	0.246025
630.192	0.245629
630.525	0.245259
630.858	0.244825
631.190	0.244361
631.523	0.243989
631.855	0.243422
632.188	0.242981
632.520	0.242643
632.852	0.242231
633.185	0.241847
633.517	0.241369
633.849	0.241040
634.182	0.240767
634.514	0.240458
634.846	0.240229
635.178	0.240002
635.510	0.239827
635.842	0.239576
636.174	0.239377
636.506	0.239119
636.837	0.238861
637.169	0.238617
637.501	0.238341
637.833	0.238195
638.164	0.237921
638.496	0.237640
638.828	0.237457
639.159	0.237056
639.491	0.236669
639.822	0.236247
640.154	0.235722
640.485	0.235347
640.816	0.234869
641.147	0.234375
641.479	0.233873
641.810	0.233374
642.141	0.232961
642.472	0.232482
642.803	0.232096
643.134	0.231578
643.465	0.231154
643.796	0.230771
644.127	0.230359
644.458	0.230002
644.789	0.229668
645.119	0.229550
645.450	0.229562
645.781	0.229597
646.111	0.229788
646.442	0.229869
646.773	0.229960
647.103	0.230019
647.433	0.229974
647.764	0.229920
648.094	0.229840
648.425	0.229894
648.755	0.229916
649.085	0.229802
649.415	0.229766
649.745	0.229839
650.075	0.229937
650.405	0.229911
650.735	0.228224
651.065	0.218843
651.395	0.211214
651.725	0.196635
652.055	0.157771
652.385	0.119190
652.715	0.093080
653.044	0.075403
653.374	0.062672
653.704	0.062972
654.033	0.076903
654.363	0.085196
654.692	0.090033
655.022	0.092876
655.351	0.094625
655.680	0.095670
656.010	0.096243
656.339	0.096496
656.668	0.096550
656.997	0.096496
657.326	0.096371
657.655	0.096177
657.984	0.094958
658.313	0.089575
658.642	0.082001
658.971	0.084205
659.300	0.096825
659.629	0.115869
659.958	0.142992
660.286	0.184862
660.615	0.222797
660.944	0.221577
661.272	0.220034
661.601	0.219461
661.929	0.220082
662.258	0.220958
662.586	0.221620
662.915	0.221770
663.243	0.221464
663.571	0.221001
663.899	0.220521
664.228	0.220148
664.556	0.219920
664.884	0.219563
665.212	0.219299
665.540	0.219050
665.868	0.218907
666.196	0.218845
666.524	0.218550
666.852	0.218418
667.179	0.218216
667.507	0.217966
667.835	0.217864
668.162	0.217788
668.490	0.217749
668.818	0.217509
669.145	0.217489
669.473	0.217553
669.800	0.217596
670.127	0.217653
670.455	0.217727
670.782	0.217759
671.109	0.217803
671.436	0.217868
671.764	0.218001
672.091	0.218047
672.418	0.217973
672.745	0.217934
673.072	0.217917
673.399	0.217929
673.726	0.217805
674.053	0.217728
674.379	0.217701
674.706	0.217665
675.033	0.217437
675.359	0.217244
675.686	0.217097
676.013	0.216921
676.339	0.216652
676.666	0.216410
676.992	0.216314
677.318	0.216188
677.645	0.216100
677.971	0.215963
678.297	0.215898
678.624	0.215745
678.950	0.215612
679.276	0.215465
679.602	0.215301
679.928	0.215076
680.254	0.214777
680.580	0.214728
680.906	0.214545
681.232	0.214480
681.558	0.214516
681.883	0.214594
682.209	0.214616
682.535	0.214706
682.860	0.214726
683.186	0.214716
683.511	0.214620
683.837	0.214415
684.162	0.214348
684.488	0.214183
684.813	0.214069
685.138	0.213782
685.464	0.213592
685.789	0.213436
686.114	0.213366
686.439	0.213257
686.764	0.213187
687.089	0.213227
687.414	0.213112
687.739	0.213055
688.064	0.212943
688.389	0.212726
688.714	0.212485
689.039	0.212254
689.363	0.211987
689.688	0.211707
690.013	0.211486
690.337	0.211372
690.662	0.211297
690.986	0.211116
691.311	0.211051
691.635	0.210935
691.959	0.210868
692.284	0.210658
692.608	0.210465
692.932	0.210313
693.256	0.210243
693.580	0.210145
693.904	0.210115
694.228	0.210066
694.552	0.210178
694.876	0.210171
695.200	0.210101
695.524	0.209944
695.848	0.209757
696.172	0.209549
696.495	0.209318
696.819	0.209163
697.143	0.208842
697.466	0.208548
697.790	0.208161
698.113	0.207882
698.437	0.207594
698.760	0.207389
699.083	0.207308
699.407	0.207259
699.730	0.207203
700.053	0.207101
700.376	0.206982
700.699	0.206631
701.022	0.206310
701.345	0.205681
701.668	0.205077
701.991	0.204536
702.314	0.203965
702.637	0.203400
702.960	0.202854
703.283	0.202460
703.605	0.202064
703.928	0.201923
704.251	0.201933
704.573	0.202001
704.896	0.202017
705.218	0.201951
705.540	0.201803
705.863	0.201590
706.185	0.201235
706.507	0.200734
706.830	0.200264
707.152	0.199669
707.474	0.199197
707.796	0.198754
708.118	0.198434
708.440	0.198188
708.762	0.197909
709.084	0.197752
709.406	0.197592
709.728	0.197409
710.049	0.197228
710.371	0.196980
710.693	0.196655
711.014	0.196261
711.336	0.195969
711.658	0.195608
711.979	0.195376
712.301	0.195156
712.622	0.194971
712.943	0.194768
713.265	0.194709
713.586	0.194540
713.907	0.194581
714.228	0.194634
714.549	0.194650
714.870	0.194648
715.191	0.194646
715.512	0.194687
715.833	0.194725
716.154	0.194696
716.475	0.194663
716.796	0.194583
717.117	0.194397
717.437	0.194206
717.758	0.193858
718.078	0.193447
718.399	0.193097
718.719	0.192796
719.040	0.192441
719.360	0.192163
719.681	0.191951
720.001	0.191787
720.321	0.191672
720.642	0.191457
720.962	0.191204
721.282	0.191032
721.602	0.190887
721.922	0.190702
722.242	0.190474
722.562	0.190335
722.882	0.190266
723.202	0.190300
723.521	0.190124
723.841	0.190122
724.161	0.190063
724.481	0.190126
724.800	0.190122
725.120	0.190066
725.439	0.189944
725.759	0.190018
726.078	0.189987
726.398	0.190071
726.717	0.190102
727.036	0.190218
727.355	0.190396
727.675	0.190613
727.994	0.190875
728.313	0.191105
728.632	0.191273
728.951	0.191424
729.270	0.191414
729.589	0.191347
729.908	0.191172
730.226	0.191074
730.545	0.190973
730.864	0.190848
731.182	0.190736
731.501	0.190648
731.820	0.190611
732.138	0.190652
732.457	0.190540
732.775	0.190501
733.093	0.190418
733.412	0.190316
733.730	0.190203
734.048	0.190033
734.367	0.189777
734.685	0.189426
735.003	0.189079
735.321	0.188764
735.639	0.188515
735.957	0.188332
736.275	0.188186
736.593	0.188189
736.910	0.188128
737.228	0.188052
737.546	0.187975
737.863	0.187821
738.181	0.187637
738.499	0.187458
738.816	0.187223
739.134	0.187080
739.451	0.186906
739.768	0.186654
740.086	0.186434
740.403	0.186237
740.720	0.185974
741.038	0.185850
741.355	0.185630
741.672	0.185355
741.989	0.185042
742.306	0.184728
742.623	0.184331
742.940	0.183933
743.257	0.183264
743.573	0.182807
743.890	0.182359
744.207	0.181961
744.523	0.181657
744.840	0.181401
745.157	0.181144
745.473	0.180837
745.790	0.180583
746.106	0.180421
746.422	0.180346
746.739	0.180290
747.055	0.180167
747.371	0.180178
747.687	0.180154
748.004	0.180241
748.320	0.180323
748.636	0.180400
748.952	0.180396
749.268	0.180550
749.584	0.180633
749.899	0.180765
750.215	0.180844
750.531	0.180874
750.847	0.180948
751.162	0.181074
751.478	0.181197
751.793	0.181188
752.109	0.181168
752.424	0.181149
752.740	0.181125
753.055	0.181177
753.370	0.181241
753.686	0.181502
754.001	0.181828
754.316	0.182136
754.631	0.182409
754.946	0.182654
755.261	0.182900
755.576	0.183126
755.891	0.183156
756.206	0.183180
756.521	0.183226
756.836	0.183290
757.150	0.183364
757.465	0.183419
757.780	0.183457
758.094	0.183505
758.409	0.183625
758.723	0.183733
759.038	0.183759
759.352	0.183805
759.667	0.183842
759.981	0.183797
760.295	0.183615
760.609	0.183366
760.923	0.183136
761.238	0.182896
761.552	0.182733
761.866	0.182518
762.180	0.182411
762.493	0.182416
762.807	0.182378
763.121	0.182252
763.435	0.182082
763.749	0.181854
764.062	0.181643
764.376	0.181393
764.689	0.181166
765.003	0.180881
765.316	0.180781
765.630	0.180869
765.943	0.180835
766.257	0.180758
766.570	0.180692
766.883	0.180541
767.196	0.180374
767.509	0.180143
767.822	0.179917
768.135	0.179674
768.448	0.179479
768.761	0.179198
769.074	0.178894
769.387	0.178617
769.700	0.178458
770.013	0.178356
770.325	0.178232
770.638	0.178168
770.950	0.178051
771.263	0.177912
771.575	0.177815
771.888	0.177548
772.200	0.177098
772.513	0.176635
772.825	0.176232
773.137	0.175822
773.449	0.175573
773.761	0.175274
774.074	0.174987
774.386	0.174720
774.698	0.174406
775.010	0.173988
775.321	0.173580
775.633	0.173169
775.945	0.173076
776.257	0.173054
776.568	0.172853
776.880	0.172866
777.192	0.172771
777.503	0.172762
777.815	0.172851
778.126	0.172975
778.438	0.173081
778.749	0.173374
779.060	0.173598
779.372	0.173820
779.683	0.173978
779.994	0.174079
780.305	0.174156
780.616	0.174278
780.927	0.174459
781.238	0.174511
781.549	0.174711
781.860	0.174860
782.171	0.175066
782.481	0.175097
782.792	0.175056
783.103	0.175116
783.413	0.175198
783.724	0.175133
784.034	0.175024
784.345	0.174825
784.655	0.174642
784.966	0.174512
785.276	0.174415
785.586	0.174360
785.896	0.174193
786.207	0.174124
786.517	0.174092
786.827	0.174146
787.137	0.174078
787.447	0.173918
787.757	0.173940
788.066	0.173838
788.376	0.173816
788.686	0.173845
788.996	0.173806
789.305	0.173669
789.615	0.173687
789.925	0.173435
790.234	0.173373
790.544	0.173477
790.853	0.173551
791.162	0.173764
791.472	0.173967
791.781	0.173848
792.090	0.173941
792.399	0.173968
792.708	0.173924
793.017	0.173755
793.326	0.173547
793.635	0.173433
793.944	0.173271
794.253	0.172997
794.562	0.172877
794.871	0.172700
795.179	0.172479
795.488	0.172353
795.797	0.172340
796.105	0.172089
796.414	0.172100
796.722	0.172208
797.031	0.172173
797.339	0.172020
797.647	0.171559
797.956	0.171106
798.264	0.170755
798.572	0.170230
798.880	0.169828
799.188	0.169423
799.496	0.169167
799.804	0.169152
800.112	0.168999
800.420	0.168924
800.728	0.168948
801.035	0.168796
801.343	0.168462
801.651	0.167994
801.958	0.167726
802.266	0.167614
802.573	0.167708
802.881	0.167662
803.188	0.167453
803.496	0.167465
803.803	0.167602
804.110	0.167752
804.417	0.167619
804.724	0.167651
805.032	0.167665
805.339	0.167606
805.646	0.167658
805.953	0.167470
806.259	0.167219
806.566	0.166981
806.873	0.166970
807.180	0.166781
807.486	0.166767
807.793	0.166895
808.100	0.167020
808.406	0.167046
808.713	0.166851
809.019	0.166271
809.326	0.165995
809.632	0.165635
809.938	0.164919
810.244	0.164288
810.551	0.163741
810.857	0.163504
811.163	0.163360
811.469	0.163052
811.775	0.162744
812.081	0.162436
812.387	0.162445
812.692	0.162398
812.998	0.162411
813.304	0.162194
813.610	0.162327
813.915	0.162091
814.221	0.161889
814.526	0.161940
814.832	0.162035
815.137	0.161911
815.443	0.162101
815.748	0.161810
816.053	0.161640
816.358	0.161609
816.664	0.161416
816.969	0.161268
817.274	0.161135
817.579	0.160602
817.884	0.160297
818.189	0.160414
818.493	0.160634
818.798	0.160611
819.103	0.160387
819.408	0.160150
819.712	0.159827
820.017	0.159478
820.321	0.159379
820.626	0.159167
820.930	0.158744
821.235	0.158129
821.539	0.157861
821.843	0.157722
822.148	0.157853
822.452	0.157809
822.756	0.157837
823.060	0.157947
823.364	0.158151
823.668	0.158093
823.972	0.158136
824.276	0.158152
824.580	0.157728
824.883	0.157559
825.187	0.157482
825.491	0.157543
825.795	0.157569
826.098	0.157817
826.402	0.157838
826.705	0.157983
827.008	0.157740
827.312	0.157554
827.615	0.157378
827.918	0.157333
828.222	0.156975
828.525	0.156416
828.828	0.156314
829.131	0.156044
829.434	0.155448
829.737	0.154881
830.040	0.154056
830.343	0.153525
830.645	0.153201
830.948	0.153275
831.251	0.152835
831.553	0.152257
831.856	0.151847
832.159	0.151992
832.461	0.151486
832.764	0.150894
833.066	0.150338
833.368	0.150370
833.671	0.150172
833.973	0.149969
834.275	0.149551
834.577	0.149533
834.879	0.149495
835.181	0.148848
835.483	0.148349
835.785	0.148027
836.087	0.147707
836.389	0.147446
836.690	0.147009
836.992	0.145996
837.294	0.144768
837.595	0.143566
837.897	0.142762
838.198	0.141838
838.500	0.140370
838.801	0.139372
839.103	0.138959
839.404	0.138010
839.705	0.137133
840.006	0.136674
840.307	0.136368
840.608	0.136070
840.910	0.136034
841.210	0.136387
841.511	0.136546
841.812	0.136794
842.113	0.137090
842.414	0.136511
842.715	0.135996
843.015	0.134816
843.316	0.134623
843.616	0.133419
843.917	0.132523
844.217	0.132045
844.518	0.131141
844.818	0.130963
845.118	0.130876
845.419	0.130793
845.719	0.130671
846.019	0.130496
846.319	0.130499
846.619	0.129889
846.919	0.130128
847.219	0.129689
847.519	0.129212
847.819	0.129022
848.118	0.127995
848.418	0.127783
848.718	0.127677
849.017	0.127984
849.317	0.129203
849.616	0.129694
849.916	0.131469
850.215	0.132690
850.515	0.133797
850.814	0.134628
851.113	0.135549
851.412	0.136049
851.712	0.135865
852.011	0.136076
852.310	0.136695
852.609	0.136956
852.908	0.137122
853.206	0.137356
853.505	0.137758
853.804	0.137866
854.103	0.138017
854.401	0.138532
854.700	0.138450
854.999	0.138258
855.297	0.138132
855.595	0.137928
855.894	0.137877
856.192	0.137418
856.491	0.137191
856.789	0.136414
857.087	0.135678
857.385	0.134564
857.683	0.133957
857.981	0.133974
858.279	0.133276
858.577	0.132193
858.875	0.131412
859.173	0.131279
859.471	0.130192
859.768	0.129387
860.066	0.128445
860.363	0.127706
860.661	0.126937
860.959	0.126617
861.256	0.127107
861.553	0.127692
861.851	0.126933
862.148	0.126293
862.445	0.126100
862.742	0.125167
863.039	0.124355
863.337	0.124139
863.634	0.123418
863.931	0.122311
864.227	0.121462
864.524	0.121571
864.821	0.121484
865.118	0.120747
865.415	0.119964
865.711	0.119583
866.008	0.118093
866.304	0.117638
866.601	0.117281
866.897	0.116578
867.194	0.116283
867.490	0.115228
867.786	0.113868
868.082	0.114264
868.379	0.114606
868.675	0.114397
868.971	0.114636
869.267	0.115098
869.563	0.115877
869.859	0.115694
870.154	0.115715
870.450	0.115501
870.746	0.115126
871.042	0.115093
871.337	0.115252
871.633	0.115746
871.928	0.115588
872.224	0.115782
872.519	0.115590
872.815	0.115552
873.110	0.115480
873.405	0.115190
873.700	0.115124
873.995	0.115023
874.291	0.114235
874.586	0.114115
874.881	0.114010
875.175	0.113766
875.470	0.114153
875.765	0.113737
876.060	0.114257
876.355	0.114509
876.649	0.114750
876.944	0.114878
877.238	0.115038
877.533	0.115271
877.827	0.115272
878.122	0.116249
878.416	0.117356
878.710	0.117636
879.005	0.117357
879.299	0.116836
879.593	0.116580
879.887	0.116585
880.181	0.116296
880.475	0.116652
880.769	0.116223
881.063	0.116132
881.356	0.116056
881.650	0.115589
881.944	0.114895
882.238	0.098752
882.531	0.109911
882.825	0.109891
883.118	0.098679
883.412	0.110469
883.705	0.104164
883.998	0.111741
884.291	0.114202
884.585	0.110502
884.878	0.102455
>>>>>>>>>> END of Data <<<<<<<<<<
>>>>>>>>>> Raw Data Start <<<<<<<<
190.664	-414
191.040	3
191.415	3
191.791	3
192.166	9
192.542	8
192.917	6
193.293	9
193.668	6
194.044	12
194.419	-11
194.794	9
195.170	10
195.545	10
195.920	11
196.296	11
196.671	12
197.046	12
197.421	13
197.796	13
198.171	14
198.546	13
198.922	14
199.297	14
199.672	14
200.047	15
200.422	15
200.796	15
201.171	15
201.546	15
201.921	15
202.296	16
202.671	15
203.045	15
203.420	16
203.795	16
204.170	16
204.544	15
204.919	15
205.294	15
205.668	15
206.043	15
206.417	15
206.792	15
207.166	15
207.541	14
207.915	14
208.289	14
208.664	14
209.038	14
209.412	14
209.787	14
210.161	14
210.535	14
210.909	15
211.284	14
211.658	14
212.032	14
212.406	14
212.780	14
213.154	13
213.528	14
213.902	13
214.276	13
214.650	13
215.024	13
215.398	13
215.772	13
216.145	13
216.519	13
216.893	13
217.267	13
217.640	14
218.014	14
218.388	14
218.761	14
219.135	14
219.508	14
219.882	14
220.256	14
220.629	15
221.003	15
221.376	14
221.749	15
222.123	15
222.496	15
222.869	15
223.243	15
223.616	15
223.989	15
224.362	15
224.736	15
225.109	15
225.482	15
225.855	15
226.228	15
226.601	15
226.974	15
227.347	15
227.720	15
228.093	15
228.466	15
228.839	15
229.212	15
229.585	14
229.957	14
230.330	15
230.703	15
231.076	15
231.448	15
231.821	15
232.194	15
232.566	15
232.939	14
233.311	14
233.684	14
234.056	14
234.429	14
234.801	14
235.174	14
235.546	15
235.918	15
236.291	15
236.663	15
237.035	15
237.408	15
237.780	16
238.152	15
238.524	16
238.896	16
239.268	16
239.641	16
240.013	16
240.385	15
240.757	16
241.129	16
241.500	16
241.872	16
242.244	16
242.616	16
242.988	16
243.360	16
243.731	16
244.103	16
244.475	16
244.847	16
245.218	16
245.590	16
245.961	16
246.333	16
246.705	16
247.076	16
247.448	17
247.819	17
248.190	17
248.562	17
248.933	17
249.305	17
249.676	17
250.047	17
250.418	17
250.790	17
251.161	17
251.532	17
251.903	17
252.274	17
252.645	17
253.016	17
253.387	17
253.758	18
254.129	17
254.500	17
254.871	17
255.242	17
255.613	17
255.984	17
256.355	17
256.725	17
257.096	17
257.467	17
257.838	17
258.208	17
258.579	17
258.949	17
259.320	17
259.690	18
260.061	18
260.431	18
260.802	18
261.172	17
261.543	17
261.913	17
262.283	17
262.654	17
263.024	17
263.394	17
263.764	17
264.135	18
264.505	18
264.875	18
265.245	18
265.615	17
265.985	17
266.355	17
266.725	17
267.095	17
267.465	17
267.835	17
268.205	17
268.575	17
268.944	17
269.314	17
269.684	17
270.054	17
270.423	17
270.793	17
271.163	16
271.532	17
271.902	16
272.271	16
272.641	16
273.010	16
273.380	17
273.749	17
274.119	17
274.488	17
274.857	17
275.227	17
275.596	17
275.965	17
276.335	17
276.704	17
277.073	17
277.442	17
277.811	18
278.180	18
278.549	18
278.918	18
279.287	18
279.656	18
280.025	18
280.394	18
280.763	19
281.132	18
281.501	18
281.869	18
282.238	18
282.607	18
282.976	18
283.344	18
283.713	18
284.081	18
284.450	17
284.819	17
285.187	17
285.556	17
285.924	17
286.292	17
286.661	17
287.029	17
287.398	17
287.766	17
288.134	17
288.502	17
288.871	17
289.239	17
289.607	17
289.975	17
290.343	17
290.711	17
291.079	17
291.447	17
291.815	17
292.183	17
292.551	17
292.919	17
293.287	17
293.655	17
294.022	17
294.390	17
294.758	17
295.126	17
295.493	17
295.861	17
296.229	17
296.596	17
296.964	17
297.331	17
297.699	17
298.066	17
298.434	17
298.801	17
299.168	16
299.536	16
299.903	17
300.270	16
300.638	17
301.005	16
301.372	17
301.739	17
302.106	17
302.473	18
302.840	18
303.207	18
303.574	17
303.941	18
304.308	18
304.675	18
305.042	18
305.409	18
305.776	18
306.143	18
306.509	19
306.876	19
307.243	19
307.610	19
307.976	19
308.343	19
308.709	19
309.076	19
309.442	19
309.809	19
310.175	19
310.542	20
310.908	20
311.275	20
311.641	20
312.007	20
312.373	20
312.740	21
313.106	21
313.472	21
313.838	21
314.204	21
314.570	22
314.936	22
315.302	22
315.668	23
316.034	23
316.400	23
316.766	23
317.132	23
317.498	24
317.864	24
318.230	25
318.595	25
318.961	26
319.327	26
319.692	27
320.058	27
320.424	28
320.789	29
321.155	30
321.520	30
321.886	31
322.251	32
322.616	32
322.982	33
323.347	34
323.712	36
324.078	37
324.443	38
324.808	40
325.173	41
325.539	42
325.904	43
326.269	44
326.634	46
326.999	47
327.364	48
327.729	50
328.094	51
328.459	52
328.823	54
329.188	55
329.553	57
329.918	58
330.283	59
330.647	61
331.012	62
331.377	63
331.741	65
332.106	66
332.470	67
332.835	68
333.199	70
333.564	71
333.928	73
334.293	74
334.657	76
335.021	78
335.386	79
335.750	81
336.114	82
336.478	84
336.843	86
337.207	87
337.571	89
337.935	91
338.299	93
338.663	95
339.027	96
339.391	98
339.755	99
340.119	101
340.483	103
340.846	104
341.210	106
341.574	107
341.938	109
342.301	110
342.665	112
343.029	113
343.392	115
343.756	116
344.119	118
344.483	119
344.846	121
345.210	122
345.573	123
345.937	125
346.300	126
346.663	127
347.027	129
347.390	130
347.753	132
348.116	133
348.479	134
348.843	136
349.206	137
349.569	139
349.932	140
350.295	141
350.658	142
351.021	143
351.383	143
351.746	144
352.109	145
352.472	146
352.835	148
353.197	148
353.560	149
353.923	150
354.285	151
354.648	152
355.011	153
355.373	153
355.736	154
356.098	155
356.461	156
356.823	157
357.185	157
357.548	158
357.910	158
358.272	160
358.635	161
358.997	162
359.359	162
359.721	163
360.083	163
360.445	164
360.807	164
361.169	165
361.531	166
361.893	166
362.255	167
362.617	167
362.979	168
363.341	169
363.703	170
364.064	170
364.426	171
364.788	172
365.149	172
365.511	173
365.873	173
366.234	173
366.596	173
366.957	174
367.319	174
367.680	175
368.042	175
368.403	175
368.764	175
369.126	175
369.487	175
369.848	176
370.209	176
370.570	176
370.931	175
371.293	175
371.654	175
372.015	175
372.376	175
372.737	175
373.098	175
373.458	175
373.819	176
374.180	176
374.541	176
374.902	176
375.263	176
375.623	177
375.984	177
376.345	178
376.705	178
377.066	178
377.426	178
377.787	179
378.147	179
378.508	179
378.868	180
379.228	180
379.589	181
379.949	181
380.309	182
380.670	182
381.030	182
381.390	182
381.750	183
382.110	183
382.470	183
382.830	183
383.190	183
383.550	183
383.910	183
384.270	184
384.630	185
384.990	185
385.350	185
385.709	185
386.069	185
386.429	186
386.788	185
387.148	185
387.508	185
387.867	186
388.227	186
388.586	187
388.946	188
389.305	188
389.665	189
390.024	190
390.383	191
390.743	192
391.102	192
391.461	193
391.820	193
392.179	193
392.539	193
392.898	193
393.257	193
393.616	194
393.975	195
394.334	196
394.693	197
395.051	198
395.410	199
395.769	200
396.128	200
396.487	200
396.845	200
397.204	200
397.563	201
397.921	201
398.280	201
398.638	201
398.997	201
399.355	201
399.714	201
400.072	202
400.431	202
400.789	203
401.147	203
401.506	204
401.864	204
402.222	204
402.580	204
402.938	204
403.297	204
403.655	204
404.013	204
404.371	204
404.729	204
405.087	204
405.444	204
405.802	204
406.160	204
406.518	205
406.876	205
407.233	206
407.591	206
407.949	206
408.306	206
408.664	206
409.022	206
409.379	206
409.737	206
410.094	207
410.451	207
410.809	208
411.166	209
411.523	209
411.881	209
412.238	210
412.595	211
412.952	211
413.310	211
413.667	211
414.024	211
414.381	211
414.738	212
415.095	213
415.452	213
415.809	214
416.165	214
416.522	215
416.879	216
417.236	217
417.593	219
417.949	220
418.306	222
418.663	224
419.019	226
419.376	229
419.732	231
420.089	233
420.445	235
420.802	236
421.158	239
421.514	240
421.871	242
422.227	243
422.583	244
422.939	246
423.295	247
423.652	248
424.008	249
424.364	250
424.720	250
425.076	250
425.432	251
425.788	251
426.143	252
426.499	253
426.855	254
427.211	255
427.567	256
427.922	257
428.278	258
428.634	259
428.989	259
429.345	260
429.700	261
430.056	262
430.411	263
430.767	264
431.122	266
431.478	268
431.833	269
432.188	270
432.543	271
432.899	272
433.254	273
433.609	273
433.964	273
434.319	273
434.674	273
435.029	274
435.384	275
435.739	276
436.094	278
436.449	279
436.804	282
437.158	284
437.513	287
437.868	290
438.223	294
438.577	298
438.932	301
439.287	305
439.641	309
439.996	314
440.350	317
440.704	321
441.059	325
441.413	330
441.768	334
442.122	338
442.476	341
442.830	345
443.185	349
443.539	353
443.893	357
444.247	360
444.601	362
444.955	365
445.309	367
445.663	368
446.017	370
446.371	371
446.724	372
447.078	373
447.432	373
447.786	374
448.139	374
448.493	374
448.847	374
449.200	374
449.554	374
449.907	374
450.261	374
450.614	374
450.968	374
451.321	375
451.674	375
452.027	376
452.381	376
452.734	377
453.087	378
453.440	379
453.793	381
454.146	383
454.499	385
454.852	389
455.205	393
455.558	396
455.911	401
456.264	405
456.617	408
456.970	412
457.322	415
457.675	418
458.028	421
458.380	424
458.733	426
459.086	428
459.438	431
459.791	435
460.143	439
460.496	444
460.848	449
461.200	454
461.553	461
461.905	466
462.257	471
462.609	476
462.961	480
463.314	484
463.666	488
464.018	491
464.370	494
464.722	498
465.074	502
465.426	505
465.777	509
466.129	511
466.481	513
466.833	515
467.184	516
467.536	516
467.888	516
468.239	516
468.591	516
468.943	516
469.294	516
469.646	518
469.997	520
470.348	523
470.700	527
471.051	532
471.402	538
471.754	546
472.105	554
472.456	562
472.807	572
473.158	582
473.509	593
473.860	605
474.211	617
474.562	630
474.913	644
475.264	658
475.615	671
475.966	685
476.316	698
476.667	712
477.018	726
477.368	740
477.719	755
478.070	768
478.420	782
478.771	795
479.121	808
479.472	820
479.822	834
480.172	848
480.523	864
480.873	887
481.223	925
481.573	981
481.924	1051
482.274	1129
482.624	1211
482.974	1294
483.324	1367
483.674	1422
484.024	1460
484.374	1486
484.724	1502
485.073	1514
485.423	1524
485.773	1534
486.123	1544
486.472	1553
486.822	1561
487.172	1569
487.521	1574
487.871	1578
488.220	1574
488.570	1555
488.919	1518
489.268	1467
489.618	1406
489.967	1341
490.316	1276
490.666	1219
491.015	1179
491.364	1155
491.713	1144
492.062	1142
492.411	1144
492.760	1148
493.109	1153
493.458	1158
493.807	1162
494.156	1166
494.505	1170
494.853	1175
495.202	1180
495.551	1187
495.900	1194
496.248	1202
496.597	1210
496.945	1217
497.294	1224
497.642	1232
497.991	1241
498.339	1252
498.688	1263
499.036	1273
499.384	1282
499.732	1291
500.081	1299
500.429	1305
500.777	1311
501.125	1317
501.473	1323
501.821	1330
502.169	1335
502.517	1340
502.865	1344
503.213	1347
503.561	1349
503.908	1350
504.256	1351
504.604	1352
504.952	1351
505.299	1351
505.647	1349
505.994	1346
506.342	1343
506.689	1340
507.037	1336
507.384	1334
507.732	1333
508.079	1332
508.426	1332
508.774	1332
509.121	1331
509.468	1330
509.815	1328
510.162	1326
510.509	1325
510.856	1323
511.203	1321
511.550	1318
511.897	1317
512.244	1314
512.591	1312
512.938	1310
513.284	1309
513.631	1306
513.978	1303
514.324	1301
514.671	1298
515.018	1294
515.364	1291
515.711	1288
516.057	1285
516.403	1283
516.750	1279
517.096	1276
517.443	1271
517.789	1267
518.135	1262
518.481	1259
518.827	1256
519.173	1252
519.519	1249
519.865	1246
520.211	1243
520.557	1241
520.903	1239
521.249	1238
521.595	1237
521.941	1235
522.287	1233
522.632	1232
522.978	1231
523.324	1231
523.669	1230
524.015	1232
524.360	1235
524.706	1239
525.051	1244
525.397	1250
525.742	1257
526.087	1265
526.433	1272
526.778	1278
527.123	1283
527.468	1287
527.813	1290
528.158	1294
528.504	1299
528.849	1306
529.193	1316
529.538	1326
529.883	1340
530.228	1355
530.573	1372
530.918	1390
531.263	1407
531.607	1424
531.952	1438
532.296	1451
532.641	1461
532.986	1469
533.330	1477
533.675	1485
534.019	1496
534.363	1510
534.708	1525
535.052	1544
535.396	1563
535.741	1582
536.085	1598
536.429	1614
536.773	1627
537.117	1636
537.461	1645
537.805	1653
538.149	1662
538.493	1672
538.837	1683
539.181	1695
539.524	1711
539.868	1729
540.212	1749
540.556	1770
540.899	1793
541.243	1813
541.586	1830
541.930	1844
542.273	1854
542.617	1863
542.960	1871
543.304	1883
543.647	1897
543.990	1916
544.333	1937
544.677	1959
545.020	1979
545.363	1996
545.706	2009
546.049	2020
546.392	2026
546.735	2030
547.078	2031
547.421	2034
547.764	2037
548.106	2041
548.449	2049
548.792	2059
549.135	2073
549.477	2091
549.820	2108
550.162	2124
550.505	2137
550.847	2146
551.190	2152
551.532	2158
551.875	2164
552.217	2171
552.559	2180
552.901	2193
553.244	2208
553.586	2224
553.928	2241
554.270	2256
554.612	2269
554.954	2280
555.296	2289
555.638	2298
555.980	2308
556.322	2320
556.663	2337
557.005	2360
557.347	2387
557.689	2416
558.030	2446
558.372	2473
558.713	2498
559.055	2521
559.396	2544
559.738	2569
560.079	2596
560.421	2626
560.762	2660
561.103	2698
561.444	2740
561.786	2784
562.127	2830
562.468	2881
562.809	2936
563.150	2996
563.491	3062
563.832	3135
564.173	3217
564.514	3313
564.855	3428
565.195	3567
565.536	3733
565.877	3927
566.218	4147
566.558	4396
566.899	4669
567.239	4963
567.580	5271
567.920	5588
568.261	5909
568.601	6237
568.941	6577
569.282	6928
569.622	7291
569.962	7671
570.302	8076
570.643	8494
570.983	8916
571.323	9324
571.663	9718
572.003	10093
572.343	10445
572.683	10777
573.022	11115
573.362	11472
573.702	11840
574.042	12208
574.381	12563
574.721	12902
575.061	13227
575.400	13523
575.740	13787
576.079	14022
576.419	14257
576.758	14522
577.097	14834
577.437	15176
577.776	15539
578.115	15919
578.454	16304
578.794	16657
579.133	16933
579.472	17126
579.811	17240
580.150	17281
580.489	17267
580.828	17230
581.167	17195
581.505	17174
581.844	17161
582.183	17147
582.522	17145
582.860	17154
583.199	17163
583.538	17146
583.876	17075
584.215	16935
584.553	16713
584.891	16418
585.230	16055
585.568	15653
585.906	15245
586.245	14875
586.583	14557
586.921	14294
587.259	14054
587.597	13814
587.935	13564
588.273	13309
588.611	13071
588.949	12861
589.287	12687
589.625	12552
589.963	12445
590.300	12359
590.638	12282
590.976	12196
591.313	12092
591.651	11994
591.989	11909
592.326	11841
592.664	11783
593.001	11735
593.338	11707
593.676	11695
594.013	11706
594.350	11753
594.687	11830
595.025	11915
595.362	11992
595.699	12048
596.036	12085
596.373	12095
596.710	12073
597.047	12031
597.384	11980
597.720	11921
598.057	11874
598.394	11841
598.731	11824
599.067	11826
599.404	11850
599.741	11901
600.077	11971
600.414	12049
600.750	12131
601.087	12194
601.423	12225
601.759	12228
602.096	12209
602.432	12176
602.768	12123
603.104	12049
603.440	11958
603.776	11860
604.112	11754
604.448	11646
604.784	11531
605.120	11410
605.456	11291
605.792	11167
606.128	11037
606.463	10903
606.799	10768
607.135	10646
607.470	10524
607.806	10404
608.142	10287
608.477	10174
608.812	10065
609.148	9956
609.483	9840
609.819	9722
610.154	9609
610.489	9506
610.824	9416
611.159	9340
611.494	9263
611.830	9196
612.165	9128
612.500	9054
612.834	8967
613.169	8867
613.504	8758
613.839	8637
614.174	8500
614.509	8362
614.843	8224
615.178	8094
615.512	7963
615.847	7836
616.182	7709
616.516	7580
616.850	7446
617.185	7306
617.519	7162
617.853	7009
618.188	6851
618.522	6705
618.856	6582
619.190	6475
619.524	6381
619.858	6305
620.192	6246
620.526	6193
620.860	6141
621.194	6092
621.528	6042
621.862	5993
622.195	5933
622.529	5871
622.863	5805
623.196	5740
623.530	5673
623.864	5607
624.197	5539
624.530	5474
624.864	5415
625.197	5352
625.531	5284
625.864	5200
626.197	5110
626.530	5014
626.863	4905
627.196	4787
627.529	4668
627.862	4550
628.195	4433
628.528	4318
628.861	4207
629.194	4108
629.527	4013
629.860	3919
630.192	3827
630.525	3741
630.858	3661
631.190	3585
631.523	3511
631.855	3443
632.188	3383
632.520	3326
632.852	3273
633.185	3219
633.517	3168
633.849	3120
634.182	3077
634.514	3036
634.846	2999
635.178	2967
635.510	2937
635.842	2911
636.174	2885
636.506	2859
636.837	2834
637.169	2809
637.501	2783
637.833	2754
638.164	2721
638.496	2686
638.828	2644
639.159	2599
639.491	2550
639.822	2499
640.154	2448
640.485	2396
640.816	2346
641.147	2296
641.479	2248
641.810	2201
642.141	2156
642.472	2111
642.803	2067
643.134	2026
643.465	1990
643.796	1961
644.127	1940
644.458	1930
644.789	1930
645.119	1940
645.450	1958
645.781	1978
646.111	1997
646.442	2015
646.773	2029
647.103	2039
647.433	2048
647.764	2058
648.094	2071
648.425	2087
648.755	2107
649.085	2130
649.415	2155
649.745	2180
650.075	2205
650.405	2234
650.735	2300
651.065	2766
651.395	4202
651.725	6601
652.055	9678
652.385	13258
652.715	16926
653.044	20596
653.374	24269
653.704	27317
654.033	29430
654.363	30890
654.692	31861
655.022	32497
655.351	32915
655.680	33173
656.010	33313
656.339	33376
656.668	33393
656.997	33385
657.326	33360
657.655	33289
657.984	32808
658.313	31349
658.642	28919
658.971	25805
659.300	22182
659.629	18472
659.958	14762
660.286	11052
660.615	7973
660.944	5836
661.272	4354
661.601	3363
661.929	2704
662.258	2260
662.586	1971
662.915	1796
663.243	1695
663.571	1638
663.899	1604
664.228	1582
664.556	1567
664.884	1558
665.212	1551
665.540	1546
665.868	1543
666.196	1542
666.524	1542
666.852	1543
667.179	1549
667.507	1561
667.835	1579
668.162	1602
668.490	1630
668.818	1665
669.145	1700
669.473	1735
669.800	1768
670.127	1797
670.455	1820
670.782	1840
671.109	1858
671.436	1873
671.764	1884
672.091	1894
672.418	1903
672.745	1910
673.072	1917
673.399	1926
673.726	1935
674.053	1942
674.379	1944
674.706	1943
675.033	1942
675.359	1940
675.686	1936
676.013	1934
676.339	1935
676.666	1941
676.992	1955
677.318	1975
677.645	1998
677.971	2019
678.297	2039
678.624	2058
678.950	2076
679.276	2093
679.602	2109
679.928	2126
680.254	2148
680.580	2174
680.906	2208
681.232	2250
681.558	2294
681.883	2338
682.209	2379
682.535	2416
682.860	2450
683.186	2479
683.511	2502
683.837	2517
684.162	2528
684.488	2538
684.813	2547
685.138	2557
685.464	2565
685.789	2572
686.114	2578
686.439	2587
686.764	2596
687.089	2602
687.414	2603
687.739	2595
688.064	2580
688.389	2561
688.714	2538
689.039	2512
689.363	2486
689.688	2457
690.013	2429
690.337	2403
690.662	2382
690.986	2364
691.311	2345
691.635	2326
691.959	2308
692.284	2296
692.608	2293
692.932	2297
693.256	2304
693.580	2315
693.904	2327
694.228	2342
694.552	2355
694.876	2361
695.200	2359
695.524	2349
695.848	2334
696.172	2315
696.495	2295
696.819	2275
697.143	2253
697.466	2232
697.790	2213
698.113	2201
698.437	2194
698.760	2193
699.083	2192
699.407	2185
699.730	2174
700.053	2156
700.376	2131
700.699	2097
701.022	2054
701.345	2007
701.668	1964
701.991	1927
702.314	1901
702.637	1889
702.960	1894
703.283	1913
703.605	1948
703.928	1994
704.251	2047
704.573	2099
704.896	2147
705.218	2185
705.540	2216
705.863	2241
706.185	2261
706.507	2279
706.830	2296
707.152	2313
707.474	2332
707.796	2353
708.118	2375
708.440	2396
708.762	2415
709.084	2430
709.406	2438
709.728	2440
710.049	2435
710.371	2425
710.693	2409
711.014	2392
711.336	2374
711.658	2359
711.979	2345
712.301	2333
712.622	2319
712.943	2303
713.265	2283
713.586	2263
713.907	2243
714.228	2225
714.549	2211
714.870	2202
715.191	2198
715.512	2196
715.833	2193
716.154	2187
716.475	2177
716.796	2162
717.117	2142
717.437	2117
717.758	2091
718.078	2063
718.399	2036
718.719	2012
719.040	1991
719.360	1975
719.681	1963
720.001	1956
720.321	1951
720.642	1950
720.962	1951
721.282	1956
721.602	1962
721.922	1969
722.242	1979
722.562	1991
722.882	2006
723.202	2019
723.521	2033
723.841	2046
724.161	2060
724.481	2073
724.800	2087
725.120	2105
725.439	2128
725.759	2152
726.078	2180
726.398	2214
726.717	2257
727.036	2304
727.355	2354
727.675	2404
727.994	2450
728.313	2495
728.632	2533
728.951	2565
729.270	2593
729.589	2618
729.908	2651
730.226	2686
730.545	2726
730.864	2769
731.182	2815
731.501	2863
731.820	2907
732.138	2946
732.457	2980
732.775	3011
733.093	3036
733.412	3051
733.730	3055
734.048	3048
734.367	3034
734.685	3016
735.003	2995
735.321	2977
735.639	2961
735.957	2948
736.275	2937
736.593	2920
736.910	2895
737.228	2860
737.546	2816
737.863	2765
738.181	2708
738.499	2647
738.816	2588
739.134	2529
739.451	2470
739.768	2411
740.086	2354
740.403	2301
740.720	2252
741.038	2205
741.355	2160
741.672	2116
741.989	2071
742.306	2024
742.623	1976
742.940	1929
743.257	1886
743.573	1848
743.890	1817
744.207	1793
744.523	1777
744.840	1766
745.157	1759
745.473	1758
745.790	1764
746.106	1776
746.422	1796
746.739	1821
747.055	1852
747.371	1886
747.687	1923
748.004	1957
748.320	1987
748.636	2014
748.952	2042
749.268	2068
749.584	2095
749.899	2118
750.215	2142
750.531	2170
750.847	2200
751.162	2231
751.478	2260
751.793	2292
752.109	2325
752.424	2360
752.740	2397
753.055	2438
753.370	2488
753.686	2545
754.001	2606
754.316	2671
754.631	2740
754.946	2813
755.261	2889
755.576	2963
755.891	3035
756.206	3106
756.521	3180
756.836	3256
757.150	3330
757.465	3394
757.780	3450
758.094	3496
758.409	3532
758.723	3555
759.038	3564
759.352	3564
759.667	3553
759.981	3535
760.295	3518
760.609	3504
760.923	3495
761.238	3490
761.552	3486
761.866	3482
762.180	3474
762.493	3455
762.807	3419
763.121	3364
763.435	3295
763.749	3219
764.062	3147
764.376	3088
764.689	3046
765.003	3024
765.316	3020
765.630	3029
765.943	3046
766.257	3066
766.570	3083
766.883	3088
767.196	3080
767.509	3059
767.822	3030
768.135	2992
768.448	2950
768.761	2907
769.074	2869
769.387	2841
769.700	2822
770.013	2811
770.325	2802
770.638	2789
770.950	2766
771.263	2729
771.575	2677
771.888	2610
772.200	2534
772.513	2452
772.825	2365
773.137	2276
773.449	2187
773.761	2102
774.074	2023
774.386	1952
774.698	1894
775.010	1845
775.321	1811
775.633	1789
775.945	1775
776.257	1767
776.568	1766
776.880	1770
777.192	1783
777.503	1802
777.815	1826
778.126	1857
778.438	1894
778.749	1934
779.060	1973
779.372	2009
779.683	2044
779.994	2076
780.305	2102
780.616	2119
780.927	2130
781.238	2133
781.549	2128
781.860	2113
782.171	2093
782.481	2072
782.792	2050
783.103	2028
783.413	2004
783.724	1979
784.034	1955
784.345	1934
784.655	1914
784.966	1893
785.276	1872
785.586	1850
785.896	1829
786.207	1807
786.517	1784
786.827	1760
787.137	1739
787.447	1718
787.757	1698
788.066	1679
788.376	1661
788.686	1642
788.996	1624
789.305	1605
789.615	1590
789.925	1583
790.234	1581
790.544	1584
790.853	1592
791.162	1600
791.472	1607
791.781	1611
792.090	1607
792.399	1597
792.708	1582
793.017	1565
793.326	1549
793.635	1534
793.944	1520
794.253	1508
794.562	1499
794.871	1494
795.179	1490
795.488	1485
795.797	1477
796.105	1464
796.414	1442
796.722	1411
797.031	1373
797.339	1328
797.647	1277
797.956	1224
798.264	1174
798.572	1133
798.880	1101
799.188	1078
799.496	1060
799.804	1047
800.112	1037
800.420	1029
800.728	1021
801.035	1010
801.343	998
801.651	989
801.958	986
802.266	990
802.573	998
802.881	1009
803.188	1022
803.496	1038
803.803	1052
804.110	1066
804.417	1079
804.724	1089
805.032	1099
805.339	1107
805.646	1112
805.953	1116
806.259	1117
806.566	1115
806.873	1111
807.180	1106
807.486	1100
807.793	1093
808.100	1081
808.406	1063
808.713	1039
809.019	1012
809.326	983
809.632	956
809.938	931
810.244	907
810.551	888
810.857	871
811.163	857
811.469	842
811.775	825
812.081	809
812.387	794
812.692	781
812.998	772
813.304	765
813.610	759
813.915	754
814.221	750
814.526	747
814.832	743
815.137	740
815.443	735
815.748	728
816.053	719
816.358	709
816.664	700
816.969	692
817.274	685
817.579	680
817.884	677
818.189	675
818.493	675
818.798	673
819.103	669
819.408	662
819.712	655
820.017	646
820.321	637
820.626	629
820.930	621
821.235	616
821.539	613
821.843	614
822.148	615
822.452	616
822.756	615
823.060	613
823.364	609
823.668	604
823.972	597
824.276	591
824.580	586
824.883	584
825.187	583
825.491	583
825.795	583
826.098	583
826.402	582
826.705	580
827.008	576
827.312	570
827.615	560
827.918	549
828.222	536
828.525	523
828.828	510
829.131	497
829.434	485
829.737	473
830.040	464
830.343	456
830.645	449
830.948	442
831.251	435
831.553	430
831.856	425
832.159	421
832.461	415
832.764	410
833.066	404
833.368	399
833.671	396
833.973	393
834.275	391
834.577	388
834.879	385
835.181	381
835.483	377
835.785	372
836.087	365
836.389	358
836.690	348
836.992	339
837.294	329
837.595	319
837.897	308
838.198	297
838.500	287
838.801	278
839.103	270
839.404	263
839.705	258
840.006	253
840.307	249
840.608	246
840.910	244
841.210	242
841.511	241
841.812	238
842.113	235
842.414	232
842.715	228
843.015	223
843.316	218
843.616	214
843.917	210
844.217	207
844.518	204
844.818	202
845.118	200
845.419	199
845.719	198
846.019	197
846.319	196
846.619	195
846.919	194
847.219	193
847.519	192
847.819	191
848.118	192
848.418	194
848.718	200
849.017	209
849.317	222
849.616	239
849.916	257
850.215	277
850.515	300
850.814	321
851.113	342
851.412	359
851.712	376
852.011	391
852.310	406
852.609	418
852.908	429
853.206	439
853.505	448
853.804	456
854.103	463
854.401	468
854.700	470
854.999	469
855.297	463
855.595	454
855.894	441
856.192	425
856.491	407
856.789	387
857.087	367
857.385	348
857.683	330
857.981	314
858.279	300
858.577	286
858.875	274
859.173	264
859.471	257
859.768	250
860.066	245
860.363	240
860.661	236
860.959	233
861.256	230
861.553	226
861.851	222
862.148	217
862.445	213
862.742	209
863.039	205
863.337	202
863.634	200
863.931	199
864.227	198
864.524	198
864.821	198
865.118	197
865.415	196
865.711	193
866.008	190
866.304	187
866.601	183
866.897	180
867.194	177
867.490	176
867.786	175
868.082	175
868.379	175
868.675	176
868.971	176
869.267	176
869.563	176
869.859	175
870.154	174
870.450	174
870.746	173
871.042	172
871.337	172
871.633	172
871.928	173
872.224	174
872.519	175
872.815	176
873.110	177
873.405	177
873.700	176
873.995	176
874.291	176
874.586	177
874.881	178
875.175	180
875.470	182
875.765	186
876.060	189
876.355	193
876.649	196
876.944	200
877.238	203
877.533	206
877.827	209
878.122	210
878.416	211
878.710	211
879.005	210
879.299	210
879.593	209
879.887	208
880.181	207
880.475	206
880.769	204
881.063	202
881.356	200
881.650	197
881.944	195
882.238	165
882.531	155
882.825	152
883.118	159
883.412	157
883.705	157
883.998	160
884.291	163
884.585	165
884.878	175
>>>>>>>>>> END of Data <<<<<<<<<<