Date	2021年06月15日火曜日 05時18分06秒
Spectrometers	USB2+H05879
ダーク	使用
リファレンス	使用
積分時間[msec]	10
平均回数	280
ｽﾑｰｼﾞﾝｸﾞ	10
Electrical Dark	USE
ピクセル数	2048
計測モード	吸光度
保存開始波長[nm]	190.664
保存終了波長[nm]	884.878
保存ﾋﾟｯﾁ波長[nm]	全波長

>>>>>>>>>> Data Start <<<<<<<<<<<<
190.664	0.000000
191.040	0.000000
191.415	0.000000
191.791	-2.300205
192.166	-0.430412
192.542	-0.902419
192.917	0.000000
193.293	-0.348049
193.668	-0.319459
194.044	-0.893021
194.419	0.000000
194.794	-1.358195
195.170	-1.276065
195.545	-1.184586
195.920	-1.050470
196.296	-0.934985
196.671	-0.777917
197.046	-0.619842
197.421	-0.573266
197.796	-0.567392
198.171	-0.535877
198.546	-0.495444
198.922	-0.445084
199.297	-0.426342
199.672	-0.400336
200.047	-0.385336
200.422	-0.359385
200.796	-0.350625
201.171	-0.333909
201.546	-0.330715
201.921	-0.312527
202.296	-0.302858
202.671	-0.275932
203.045	-0.253615
203.420	-0.250032
203.795	-0.243598
204.170	-0.239102
204.544	-0.230276
204.919	-0.235012
205.294	-0.230229
205.668	-0.221529
206.043	-0.205820
206.417	-0.200680
206.792	-0.201192
207.166	-0.191392
207.541	-0.188279
207.915	-0.188211
208.289	-0.176651
208.664	-0.171903
209.038	-0.168138
209.412	-0.159920
209.787	-0.146816
210.161	-0.144153
210.535	-0.142537
210.909	-0.134402
211.284	-0.119439
211.658	-0.121854
212.032	-0.118879
212.406	-0.130033
212.780	-0.126518
213.154	-0.127387
213.528	-0.123313
213.902	-0.131598
214.276	-0.130286
214.650	-0.120672
215.024	-0.124066
215.398	-0.116006
215.772	-0.105431
216.145	-0.111380
216.519	-0.109998
216.893	-0.103641
217.267	-0.112190
217.640	-0.117858
218.014	-0.097995
218.388	-0.096644
218.761	-0.098122
219.135	-0.088546
219.508	-0.087364
219.882	-0.094518
220.256	-0.088503
220.629	-0.085604
221.003	-0.090057
221.376	-0.090709
221.749	-0.090424
222.123	-0.086792
222.496	-0.096253
222.869	-0.089316
223.243	-0.093087
223.616	-0.092365
223.989	-0.092046
224.362	-0.086758
224.736	-0.089608
225.109	-0.079714
225.482	-0.077457
225.855	-0.085267
226.228	-0.088340
226.601	-0.091846
226.974	-0.095645
227.347	-0.085697
227.720	-0.086347
228.093	-0.088664
228.466	-0.093064
228.839	-0.083600
229.212	-0.086819
229.585	-0.092214
229.957	-0.093874
230.330	-0.088395
230.703	-0.084590
231.076	-0.093760
231.448	-0.096502
231.821	-0.089911
232.194	-0.088158
232.566	-0.089873
232.939	-0.100874
233.311	-0.104616
233.684	-0.101704
234.056	-0.097637
234.429	-0.090562
234.801	-0.087272
235.174	-0.090032
235.546	-0.088868
235.918	-0.086873
236.291	-0.083972
236.663	-0.083315
237.035	-0.080962
237.408	-0.071497
237.780	-0.062303
238.152	-0.062718
238.524	-0.075511
238.896	-0.064311
239.268	-0.059729
239.641	-0.071989
240.013	-0.064161
240.385	-0.061606
240.757	-0.052595
241.129	-0.057812
241.500	-0.058225
241.872	-0.060276
242.244	-0.060303
242.616	-0.065714
242.988	-0.065359
243.360	-0.057043
243.731	-0.049254
244.103	-0.048460
244.475	-0.048958
244.847	-0.042061
245.218	-0.037410
245.590	-0.035130
245.961	-0.033232
246.333	-0.028256
246.705	-0.030546
247.076	-0.030935
247.448	-0.015089
247.819	-0.022517
248.190	-0.009347
248.562	-0.009043
248.933	0.003547
249.305	0.011254
249.676	0.016899
250.047	0.011967
250.418	0.013885
250.790	0.013664
251.161	0.014563
251.532	0.011554
251.903	0.012964
252.274	0.016041
252.645	0.021747
253.016	0.015229
253.387	0.009881
253.758	0.011090
254.129	0.006170
254.500	0.010536
254.871	0.007812
255.242	-0.000914
255.613	-0.002168
255.984	-0.014843
256.355	-0.014638
256.725	-0.016437
257.096	-0.020524
257.467	-0.022875
257.838	-0.018658
258.208	-0.021551
258.579	-0.020715
258.949	-0.021634
259.320	-0.022129
259.690	-0.026501
260.061	-0.024716
260.431	-0.025218
260.802	-0.027690
261.172	-0.023307
261.543	-0.020711
261.913	-0.012044
262.283	-0.019116
262.654	-0.019582
263.024	-0.014712
263.394	-0.009725
263.764	-0.001630
264.135	-0.000962
264.505	-0.003410
264.875	-0.003793
265.245	-0.001614
265.615	-0.004046
265.985	-0.004136
266.355	-0.000516
266.725	0.000521
267.095	0.001376
267.465	0.007780
267.835	0.006355
268.205	0.000321
268.575	0.011133
268.944	0.010556
269.314	0.010781
269.684	0.011432
270.054	0.011554
270.423	0.019912
270.793	0.023467
271.163	0.024590
271.532	0.024880
271.902	0.025641
272.271	0.030268
272.641	0.031931
273.010	0.026827
273.380	0.028937
273.749	0.036092
274.119	0.034378
274.488	0.040705
274.857	0.043644
275.227	0.040433
275.596	0.038586
275.965	0.042433
276.335	0.036976
276.704	0.024829
277.073	0.020559
277.442	0.020200
277.811	0.021398
278.180	0.021302
278.549	0.014786
278.918	0.007450
279.287	0.008623
279.656	0.011537
280.025	0.005725
280.394	0.007584
280.763	0.013086
281.132	0.015230
281.501	0.012486
281.869	0.008301
282.238	0.004284
282.607	0.002596
282.976	0.002011
283.344	0.006263
283.713	-0.001216
284.081	0.001172
284.450	0.008447
284.819	0.016243
285.187	0.022575
285.556	0.023138
285.924	0.018154
286.292	0.020174
286.661	0.025147
287.029	0.019532
287.398	0.020646
287.766	0.021640
288.134	0.018490
288.502	0.015471
288.871	0.014554
289.239	0.019210
289.607	0.023220
289.975	0.020432
290.343	0.025896
290.711	0.030408
291.079	0.029942
291.447	0.039745
291.815	0.038270
292.183	0.044851
292.551	0.041006
292.919	0.039071
293.287	0.046410
293.655	0.051980
294.022	0.055485
294.390	0.067078
294.758	0.071674
295.126	0.069132
295.493	0.078786
295.861	0.087483
296.229	0.087408
296.596	0.100592
296.964	0.102468
297.331	0.102496
297.699	0.108033
298.066	0.108975
298.434	0.114513
298.801	0.121686
299.168	0.122680
299.536	0.127692
299.903	0.127815
300.270	0.129201
300.638	0.130926
301.005	0.135249
301.372	0.135039
301.739	0.143628
302.106	0.139814
302.473	0.149254
302.840	0.156659
303.207	0.170712
303.574	0.181005
303.941	0.196978
304.308	0.199132
304.675	0.207928
305.042	0.225154
305.409	0.246632
305.776	0.259823
306.143	0.272319
306.509	0.284884
306.876	0.310218
307.243	0.335813
307.610	0.357936
307.976	0.385127
308.343	0.412646
308.709	0.442178
309.076	0.475963
309.442	0.502381
309.809	0.531020
310.175	0.557317
310.542	0.585668
310.908	0.608566
311.275	0.632345
311.641	0.661687
312.007	0.692972
312.373	0.727903
312.740	0.753971
313.106	0.775741
313.472	0.810357
313.838	0.838737
314.204	0.862640
314.570	0.879118
314.936	0.899196
315.302	0.920687
315.668	0.941654
316.034	0.964664
316.400	0.988139
316.766	1.005694
317.132	1.024766
317.498	1.042207
317.864	1.055598
318.230	1.073778
318.595	1.087293
318.961	1.102623
319.327	1.118747
319.692	1.129798
320.058	1.134172
320.424	1.148159
320.789	1.156655
321.155	1.163338
321.520	1.171187
321.886	1.186815
322.251	1.197022
322.616	1.203791
322.982	1.208662
323.347	1.214502
323.712	1.222707
324.078	1.225341
324.443	1.228085
324.808	1.230944
325.173	1.238115
325.539	1.244843
325.904	1.247331
326.269	1.252724
326.634	1.257022
326.999	1.259861
327.364	1.262030
327.729	1.265483
328.094	1.266162
328.459	1.270244
328.823	1.273052
329.188	1.276827
329.553	1.274558
329.918	1.276902
330.283	1.280437
330.647	1.284784
331.012	1.286931
331.377	1.286703
331.741	1.287120
332.106	1.288891
332.470	1.290310
332.835	1.289630
333.199	1.289009
333.564	1.290626
333.928	1.291264
334.293	1.291372
334.657	1.290374
335.021	1.291716
335.386	1.292627
335.750	1.293076
336.114	1.292942
336.478	1.292439
336.843	1.292379
337.207	1.293229
337.571	1.294020
337.935	1.293729
338.299	1.293159
338.663	1.292932
339.027	1.293633
339.391	1.294179
339.755	1.294048
340.119	1.293463
340.483	1.292899
340.846	1.293945
341.210	1.293754
341.574	1.293154
341.938	1.293046
342.301	1.294363
342.665	1.294797
343.029	1.295184
343.392	1.295447
343.756	1.295329
344.119	1.296049
344.483	1.296051
344.846	1.296653
345.210	1.297248
345.573	1.296868
345.937	1.297024
346.300	1.297814
346.663	1.298164
347.027	1.299004
347.390	1.299478
347.753	1.300557
348.116	1.301713
348.479	1.302455
348.843	1.302756
349.206	1.303141
349.569	1.303372
349.932	1.303604
350.295	1.304426
350.658	1.305461
351.021	1.306997
351.383	1.308079
351.746	1.308580
352.109	1.309892
352.472	1.311152
352.835	1.311368
353.197	1.312655
353.560	1.313884
353.923	1.313810
354.285	1.314517
354.648	1.314993
355.011	1.315959
355.373	1.316594
355.736	1.317707
356.098	1.318108
356.461	1.319487
356.823	1.320409
357.185	1.322190
357.548	1.322414
357.910	1.322935
358.272	1.322856
358.635	1.322915
358.997	1.323994
359.359	1.325364
359.721	1.325344
360.083	1.326299
360.445	1.327355
360.807	1.328692
361.169	1.329355
361.531	1.331082
361.893	1.331590
362.255	1.332781
362.617	1.334316
362.979	1.335600
363.341	1.335843
363.703	1.336542
364.064	1.337468
364.426	1.338699
364.788	1.339010
365.149	1.340718
365.511	1.341305
365.873	1.342730
366.234	1.343623
366.596	1.344116
366.957	1.344492
367.319	1.345679
367.680	1.346363
368.042	1.346525
368.403	1.347242
368.764	1.348450
369.126	1.348627
369.487	1.349611
369.848	1.350383
370.209	1.350786
370.570	1.351269
370.931	1.352069
371.293	1.352966
371.654	1.353658
372.015	1.354565
372.376	1.356114
372.737	1.356489
373.098	1.357737
373.458	1.358638
373.819	1.360019
374.180	1.361297
374.541	1.362484
374.902	1.363137
375.263	1.363777
375.623	1.364746
375.984	1.365877
376.345	1.366113
376.705	1.367458
377.066	1.368293
377.426	1.368503
377.787	1.368967
378.147	1.369327
378.508	1.370257
378.868	1.370846
379.228	1.371430
379.589	1.371728
379.949	1.371649
380.309	1.372412
380.670	1.372532
381.030	1.372589
381.390	1.372453
381.750	1.372430
382.110	1.372901
382.470	1.373508
382.830	1.373889
383.190	1.374563
383.550	1.374635
383.910	1.375277
384.270	1.375774
384.630	1.376852
384.990	1.377976
385.350	1.378994
385.709	1.379776
386.069	1.380542
386.429	1.380530
386.788	1.381387
387.148	1.382163
387.508	1.382897
387.867	1.383114
388.227	1.383660
388.586	1.384358
388.946	1.385495
389.305	1.385996
389.665	1.386413
390.024	1.387118
390.383	1.387568
390.743	1.387985
391.102	1.387741
391.461	1.388143
391.820	1.388550
392.179	1.387907
392.539	1.387562
392.898	1.388182
393.257	1.388562
393.616	1.388766
393.975	1.389468
394.334	1.389256
394.693	1.389071
395.051	1.389045
395.410	1.389526
395.769	1.389941
396.128	1.389899
396.487	1.388939
396.845	1.388679
397.204	1.387980
397.563	1.387336
397.921	1.386688
398.280	1.385901
398.638	1.385351
398.997	1.384707
399.355	1.383136
399.714	1.382412
400.072	1.381631
400.431	1.379752
400.789	1.378716
401.147	1.377514
401.506	1.376250
401.864	1.375206
402.222	1.373673
402.580	1.371929
402.938	1.370006
403.297	1.368020
403.655	1.367161
404.013	1.366354
404.371	1.365173
404.729	1.363963
405.087	1.362529
405.444	1.361365
405.802	1.360349
406.160	1.359228
406.518	1.357638
406.876	1.356651
407.233	1.355513
407.591	1.354434
407.949	1.353604
408.306	1.351888
408.664	1.350443
409.022	1.349164
409.379	1.347733
409.737	1.346497
410.094	1.345357
410.451	1.344208
410.809	1.342771
411.166	1.340631
411.523	1.339199
411.881	1.337525
412.238	1.335956
412.595	1.334300
412.952	1.332480
413.310	1.330570
413.667	1.329065
414.024	1.328017
414.381	1.326299
414.738	1.324544
415.095	1.322496
415.452	1.320369
415.809	1.318527
416.165	1.316542
416.522	1.314301
416.879	1.312135
417.236	1.309852
417.593	1.307475
417.949	1.305291
418.306	1.303359
418.663	1.301952
419.019	1.299761
419.376	1.297843
419.732	1.295826
420.089	1.294111
420.445	1.292032
420.802	1.290231
421.158	1.288130
421.514	1.285890
421.871	1.283967
422.227	1.281552
422.583	1.279505
422.939	1.277203
423.295	1.274923
423.652	1.272592
424.008	1.270435
424.364	1.267845
424.720	1.265859
425.076	1.263895
425.432	1.261357
425.788	1.258888
426.143	1.255831
426.499	1.253259
426.855	1.250521
427.211	1.247860
427.567	1.245051
427.922	1.242922
428.278	1.239586
428.634	1.237275
428.989	1.234474
429.345	1.231771
429.700	1.229164
430.056	1.226737
430.411	1.224587
430.767	1.222224
431.122	1.219736
431.478	1.216979
431.833	1.214419
432.188	1.211416
432.543	1.208464
432.899	1.205598
433.254	1.202275
433.609	1.199272
433.964	1.196018
434.319	1.192801
434.674	1.189303
435.029	1.186200
435.384	1.182546
435.739	1.179534
436.094	1.176092
436.449	1.173017
436.804	1.169830
437.158	1.166689
437.513	1.163133
437.868	1.159569
438.223	1.156165
438.577	1.152654
438.932	1.149643
439.287	1.146309
439.641	1.142958
439.996	1.139518
440.350	1.136046
440.704	1.132910
441.059	1.129452
441.413	1.125918
441.768	1.122385
442.122	1.119273
442.476	1.115691
442.830	1.112426
443.185	1.109390
443.539	1.106150
443.893	1.102782
444.247	1.099376
444.601	1.096102
444.955	1.092576
445.309	1.088926
445.663	1.085125
446.017	1.081453
446.371	1.077599
446.724	1.073746
447.078	1.070009
447.432	1.066362
447.786	1.062595
448.139	1.058725
448.493	1.054973
448.847	1.051278
449.200	1.047583
449.554	1.043867
449.907	1.040227
450.261	1.036222
450.614	1.032363
450.968	1.028346
451.321	1.024381
451.674	1.020428
452.027	1.016319
452.381	1.012685
452.734	1.008873
453.087	1.005173
453.440	1.001331
453.793	0.997407
454.146	0.993706
454.499	0.990033
454.852	0.986193
455.205	0.982436
455.558	0.978777
455.911	0.975285
456.264	0.971614
456.617	0.968070
456.970	0.964584
457.322	0.961435
457.675	0.958527
458.028	0.955275
458.380	0.952366
458.733	0.949366
459.086	0.946352
459.438	0.943418
459.791	0.940080
460.143	0.936898
460.496	0.933685
460.848	0.930445
461.200	0.927252
461.553	0.923972
461.905	0.920699
462.257	0.917405
462.609	0.914439
462.961	0.911515
463.314	0.908467
463.666	0.905513
464.018	0.902573
464.370	0.899662
464.722	0.896835
465.074	0.893811
465.426	0.891172
465.777	0.888496
466.129	0.885671
466.481	0.883038
466.833	0.880571
467.184	0.878239
467.536	0.875569
467.888	0.872932
468.239	0.870143
468.591	0.867153
468.943	0.864067
469.294	0.861047
469.646	0.858021
469.997	0.854681
470.348	0.851628
470.700	0.848706
471.051	0.845927
471.402	0.843086
471.754	0.840407
472.105	0.837623
472.456	0.835212
472.807	0.832642
473.158	0.830101
473.509	0.827856
473.860	0.825535
474.211	0.823270
474.562	0.821050
474.913	0.818800
475.264	0.816595
475.615	0.814468
475.966	0.812296
476.316	0.810095
476.667	0.807900
477.018	0.805731
477.368	0.803663
477.719	0.801482
478.070	0.799378
478.420	0.797214
478.771	0.795047
479.121	0.792874
479.472	0.790739
479.822	0.788494
480.172	0.786305
480.523	0.784142
480.873	0.781535
481.223	0.778638
481.573	0.775569
481.924	0.772589
482.274	0.769901
482.624	0.767349
482.974	0.765286
483.324	0.763624
483.674	0.762268
484.024	0.760898
484.374	0.759675
484.724	0.758367
485.073	0.757014
485.423	0.755699
485.773	0.754358
486.123	0.753074
486.472	0.751738
486.822	0.750409
487.172	0.749025
487.521	0.747688
487.871	0.746316
488.220	0.745074
488.570	0.743692
488.919	0.742059
489.268	0.740139
489.618	0.737992
489.967	0.735531
490.316	0.732591
490.666	0.729395
491.015	0.726220
491.364	0.723359
491.713	0.720630
492.062	0.718265
492.411	0.716007
492.760	0.713705
493.109	0.711493
493.458	0.709273
493.807	0.707095
494.156	0.704889
494.505	0.702740
494.853	0.700599
495.202	0.698402
495.551	0.696205
495.900	0.694024
496.248	0.691876
496.597	0.689681
496.945	0.687539
497.294	0.685501
497.642	0.683436
497.991	0.681290
498.339	0.679132
498.688	0.677095
499.036	0.675111
499.384	0.673041
499.732	0.671096
500.081	0.669170
500.429	0.667198
500.777	0.665345
501.125	0.663418
501.473	0.661593
501.821	0.659749
502.169	0.657871
502.517	0.656089
502.865	0.654238
503.213	0.652376
503.561	0.650591
503.908	0.648849
504.256	0.647045
504.604	0.645213
504.952	0.643368
505.299	0.641624
505.647	0.639848
505.994	0.638049
506.342	0.636172
506.689	0.634416
507.037	0.632597
507.384	0.630754
507.732	0.629005
508.079	0.627218
508.426	0.625517
508.774	0.623721
509.121	0.622068
509.468	0.620433
509.815	0.618796
510.162	0.617130
510.509	0.615692
510.856	0.614053
511.203	0.612569
511.550	0.610943
511.897	0.609372
512.244	0.607933
512.591	0.606343
512.938	0.604794
513.284	0.603206
513.631	0.601597
513.978	0.599991
514.324	0.598365
514.671	0.596731
515.018	0.595103
515.364	0.593487
515.711	0.591963
516.057	0.590431
516.403	0.588913
516.750	0.587416
517.096	0.585870
517.443	0.584478
517.789	0.582902
518.135	0.581382
518.481	0.579801
518.827	0.578435
519.173	0.576914
519.519	0.575288
519.865	0.573854
520.211	0.572448
520.557	0.570919
520.903	0.569482
521.249	0.568021
521.595	0.566466
521.941	0.565010
522.287	0.563485
522.632	0.561914
522.978	0.560318
523.324	0.558680
523.669	0.557048
524.015	0.555319
524.360	0.553639
524.706	0.551952
525.051	0.550307
525.397	0.548756
525.742	0.547148
526.087	0.545515
526.433	0.544017
526.778	0.542633
527.123	0.541057
527.468	0.539399
527.813	0.537868
528.158	0.536282
528.504	0.534635
528.849	0.533000
529.193	0.531325
529.538	0.529634
529.883	0.527791
530.228	0.525961
530.573	0.524278
530.918	0.522551
531.263	0.520971
531.607	0.519329
531.952	0.517696
532.296	0.516069
532.641	0.514449
532.986	0.512728
533.330	0.511034
533.675	0.509350
534.019	0.507472
534.363	0.505727
534.708	0.503998
535.052	0.502306
535.396	0.500629
535.741	0.499014
536.085	0.497257
536.429	0.495478
536.773	0.493708
537.117	0.491978
537.461	0.490117
537.805	0.488105
538.149	0.486043
538.493	0.483941
538.837	0.481915
539.181	0.479818
539.524	0.477746
539.868	0.475634
540.212	0.473606
540.556	0.471549
540.899	0.469468
541.243	0.467469
541.586	0.465436
541.930	0.463389
542.273	0.461307
542.617	0.459081
542.960	0.456801
543.304	0.454563
543.647	0.452242
543.990	0.449854
544.333	0.447429
544.677	0.445188
545.020	0.442975
545.363	0.440730
545.706	0.438446
546.049	0.436214
546.392	0.433943
546.735	0.431650
547.078	0.429294
547.421	0.426830
547.764	0.424360
548.106	0.421803
548.449	0.419189
548.792	0.416544
549.135	0.413968
549.477	0.411342
549.820	0.408895
550.162	0.406388
550.505	0.403844
550.847	0.401248
551.190	0.398538
551.532	0.395881
551.875	0.392933
552.217	0.389925
552.559	0.387046
552.901	0.384213
553.244	0.381358
553.586	0.378706
553.928	0.376081
554.270	0.373553
554.612	0.371096
554.954	0.368542
555.296	0.365968
555.638	0.363330
555.980	0.360485
556.322	0.357498
556.663	0.354439
557.005	0.351277
557.347	0.348243
557.689	0.345343
558.030	0.342458
558.372	0.339603
558.713	0.336705
559.055	0.333841
559.396	0.331034
559.738	0.328102
560.079	0.325126
560.421	0.322249
560.762	0.319370
561.103	0.316504
561.444	0.313699
561.786	0.310938
562.127	0.308229
562.468	0.305475
562.809	0.302661
563.150	0.299814
563.491	0.296902
563.832	0.293861
564.173	0.290706
564.514	0.287411
564.855	0.284000
565.195	0.280561
565.536	0.277167
565.877	0.273740
566.218	0.270477
566.558	0.267256
566.899	0.264257
567.239	0.261453
567.580	0.258840
567.920	0.256445
568.261	0.254262
568.601	0.252183
568.941	0.250215
569.282	0.248321
569.622	0.246469
569.962	0.244570
570.302	0.242721
570.643	0.240981
570.983	0.239353
571.323	0.237828
571.663	0.236366
572.003	0.234917
572.343	0.233450
572.683	0.231851
573.022	0.230188
573.362	0.228406
573.702	0.226663
574.042	0.224921
574.381	0.223238
574.721	0.221620
575.061	0.220054
575.400	0.218631
575.740	0.217214
576.079	0.215788
576.419	0.214263
576.758	0.212623
577.097	0.210932
577.437	0.209170
577.776	0.207328
578.115	0.205515
578.454	0.203796
578.794	0.202297
579.133	0.200993
579.472	0.199834
579.811	0.198799
580.150	0.197779
580.489	0.196720
580.828	0.195519
581.167	0.194278
581.505	0.193014
581.844	0.191729
582.183	0.190426
582.522	0.189144
582.860	0.187907
583.199	0.186754
583.538	0.185668
583.876	0.184664
584.215	0.183699
584.553	0.182755
584.891	0.181854
585.230	0.180913
585.568	0.179918
585.906	0.178797
586.245	0.177637
586.583	0.176481
586.921	0.175393
587.259	0.174415
587.597	0.173520
587.935	0.172625
588.273	0.171640
588.611	0.170506
588.949	0.169294
589.287	0.168064
589.625	0.166750
589.963	0.165550
590.300	0.164390
590.638	0.163359
590.976	0.162357
591.313	0.161337
591.651	0.160288
591.989	0.159231
592.326	0.158256
592.664	0.157381
593.001	0.156525
593.338	0.155726
593.676	0.155017
594.013	0.154293
594.350	0.153576
594.687	0.152910
595.025	0.152350
595.362	0.151765
595.699	0.151173
596.036	0.150589
596.373	0.150021
596.710	0.149424
597.047	0.148752
597.384	0.148101
597.720	0.147423
598.057	0.146726
598.394	0.146039
598.731	0.145330
599.067	0.144622
599.404	0.143893
599.741	0.143182
600.077	0.142524
600.414	0.141925
600.750	0.141408
601.087	0.140963
601.423	0.140501
601.759	0.140036
602.096	0.139501
602.432	0.139056
602.768	0.138567
603.104	0.138088
603.440	0.137579
603.776	0.137139
604.112	0.136708
604.448	0.136300
604.784	0.135900
605.120	0.135528
605.456	0.135157
605.792	0.134817
606.128	0.134503
606.463	0.134188
606.799	0.133807
607.135	0.133459
607.470	0.133090
607.806	0.132674
608.142	0.132267
608.477	0.131919
608.812	0.131551
609.148	0.131235
609.483	0.130871
609.819	0.130540
610.154	0.130160
610.489	0.129776
610.824	0.129381
611.159	0.129018
611.494	0.128624
611.830	0.128303
612.165	0.128047
612.500	0.127809
612.834	0.127596
613.169	0.127368
613.504	0.127135
613.839	0.126882
614.174	0.126607
614.509	0.126327
614.843	0.126041
615.178	0.125775
615.512	0.125527
615.847	0.125305
616.182	0.125106
616.516	0.124920
616.850	0.124785
617.185	0.124637
617.519	0.124483
617.853	0.124327
618.188	0.124081
618.522	0.123800
618.856	0.123487
619.190	0.123133
619.524	0.122801
619.858	0.122477
620.192	0.122206
620.526	0.121976
620.860	0.121851
621.194	0.121651
621.528	0.121445
621.862	0.121265
622.195	0.121094
622.529	0.120842
622.863	0.120622
623.196	0.120361
623.530	0.120174
623.864	0.119993
624.197	0.119800
624.530	0.119601
624.864	0.119407
625.197	0.119306
625.531	0.119199
625.864	0.119074
626.197	0.118908
626.530	0.118822
626.863	0.118693
627.196	0.118478
627.529	0.118285
627.862	0.118041
628.195	0.117846
628.528	0.117663
628.861	0.117409
629.194	0.117214
629.527	0.117050
629.860	0.116916
630.192	0.116727
630.525	0.116439
630.858	0.116133
631.190	0.115866
631.523	0.115600
631.855	0.115240
632.188	0.114935
632.520	0.114662
632.852	0.114387
633.185	0.114153
633.517	0.113866
633.849	0.113671
634.182	0.113590
634.514	0.113481
634.846	0.113432
635.178	0.113310
635.510	0.113195
635.842	0.113078
636.174	0.112929
636.506	0.112818
636.837	0.112648
637.169	0.112562
637.501	0.112414
637.833	0.112362
638.164	0.112319
638.496	0.112189
638.828	0.112037
639.159	0.111875
639.491	0.111671
639.822	0.111451
640.154	0.111211
640.485	0.110898
640.816	0.110560
641.147	0.110210
641.479	0.109735
641.810	0.109309
642.141	0.109052
642.472	0.108709
642.803	0.108410
643.134	0.108117
643.465	0.107750
643.796	0.107427
644.127	0.107111
644.458	0.106889
644.789	0.106624
645.119	0.106492
645.450	0.106518
645.781	0.106790
646.111	0.107041
646.442	0.107313
646.773	0.107521
647.103	0.107686
647.433	0.107827
647.764	0.107905
648.094	0.107974
648.425	0.108214
648.755	0.108310
649.085	0.108319
649.415	0.108508
649.745	0.108712
650.075	0.108918
650.405	0.109077
650.735	0.107577
651.065	0.097814
651.395	0.089532
651.725	0.077315
652.055	0.052779
652.385	0.038784
652.715	0.029713
653.044	0.023369
653.374	0.018700
653.704	0.015135
654.033	0.020691
654.363	0.026166
654.692	0.029386
655.022	0.031329
655.351	0.032521
655.680	0.033250
656.010	0.033656
656.339	0.033840
656.668	0.033893
656.997	0.033867
657.326	0.033799
657.655	0.033746
657.984	0.033495
658.313	0.031215
658.642	0.028799
658.971	0.033502
659.300	0.039502
659.629	0.047423
659.958	0.058358
660.286	0.074439
660.615	0.100453
660.944	0.110576
661.272	0.109582
661.601	0.108797
661.929	0.108109
662.258	0.107635
662.586	0.107103
662.915	0.106407
663.243	0.105718
663.571	0.105054
663.899	0.104609
664.228	0.104263
664.556	0.103994
664.884	0.103723
665.212	0.103681
665.540	0.103478
665.868	0.103436
666.196	0.103415
666.524	0.103310
666.852	0.103301
667.179	0.103251
667.507	0.103165
667.835	0.103165
668.162	0.103069
668.490	0.103150
668.818	0.103139
669.145	0.103323
669.473	0.103357
669.800	0.103607
670.127	0.103842
670.455	0.104013
670.782	0.104190
671.109	0.104304
671.436	0.104488
671.764	0.104635
672.091	0.104644
672.418	0.104693
672.745	0.104711
673.072	0.104725
673.399	0.104832
673.726	0.104824
674.053	0.104920
674.379	0.104991
674.706	0.105024
675.033	0.104909
675.359	0.104917
675.686	0.104937
676.013	0.104817
676.339	0.104707
676.666	0.104514
676.992	0.104435
677.318	0.104372
677.645	0.104301
677.971	0.104298
678.297	0.104291
678.624	0.104249
678.950	0.104224
679.276	0.104260
679.602	0.104193
679.928	0.104081
680.254	0.103896
680.580	0.103740
680.906	0.103593
681.232	0.103500
681.558	0.103539
681.883	0.103751
682.209	0.103839
682.535	0.103983
682.860	0.104129
683.186	0.104292
683.511	0.104391
683.837	0.104293
684.162	0.104318
684.488	0.104306
684.813	0.104295
685.138	0.104207
685.464	0.104199
685.789	0.104159
686.114	0.104075
686.439	0.104077
686.764	0.104094
687.089	0.104192
687.414	0.104303
687.739	0.104442
688.064	0.104581
688.389	0.104589
688.714	0.104603
689.039	0.104504
689.363	0.104422
689.688	0.104380
690.013	0.104233
690.337	0.104174
690.662	0.104211
690.986	0.104193
691.311	0.104205
691.635	0.104187
691.959	0.104175
692.284	0.104034
692.608	0.103912
692.932	0.103865
693.256	0.103825
693.580	0.103869
693.904	0.103895
694.228	0.103924
694.552	0.103959
694.876	0.104057
695.200	0.104143
695.524	0.104090
695.848	0.104118
696.172	0.104072
696.495	0.103852
696.819	0.103828
697.143	0.103656
697.466	0.103528
697.790	0.103322
698.113	0.103129
698.437	0.102891
698.760	0.102702
699.083	0.102715
699.407	0.102712
699.730	0.102679
700.053	0.102745
700.376	0.102716
700.699	0.102574
701.022	0.102428
701.345	0.102084
701.668	0.101577
701.991	0.101014
702.314	0.100454
702.637	0.099920
702.960	0.099350
703.283	0.098917
703.605	0.098463
703.928	0.098288
704.251	0.098200
704.573	0.098200
704.896	0.098211
705.218	0.098214
705.540	0.098174
705.863	0.097985
706.185	0.097642
706.507	0.097314
706.830	0.096883
707.152	0.096412
707.474	0.095981
707.796	0.095583
708.118	0.095316
708.440	0.095118
708.762	0.095011
709.084	0.094915
709.406	0.094840
709.728	0.094781
710.049	0.094727
710.371	0.094691
710.693	0.094500
711.014	0.094166
711.336	0.093921
711.658	0.093700
711.979	0.093544
712.301	0.093410
712.622	0.093314
712.943	0.093311
713.265	0.093257
713.586	0.093219
713.907	0.093244
714.228	0.093371
714.549	0.093391
714.870	0.093404
715.191	0.093449
715.512	0.093500
715.833	0.093639
716.154	0.093602
716.475	0.093574
716.796	0.093486
717.117	0.093358
717.437	0.093148
717.758	0.093053
718.078	0.092795
718.399	0.092558
718.719	0.092267
719.040	0.091997
719.360	0.091749
719.681	0.091653
720.001	0.091567
720.321	0.091483
720.642	0.091335
720.962	0.091072
721.282	0.091056
721.602	0.091015
721.922	0.090950
722.242	0.090796
722.562	0.090659
722.882	0.090638
723.202	0.090660
723.521	0.090631
723.841	0.090578
724.161	0.090633
724.481	0.090667
724.800	0.090734
725.120	0.090671
725.439	0.090714
725.759	0.090699
726.078	0.090744
726.398	0.090694
726.717	0.090722
727.036	0.090843
727.355	0.091033
727.675	0.091308
727.994	0.091545
728.313	0.091769
728.632	0.091921
728.951	0.092080
729.270	0.092147
729.589	0.092098
729.908	0.091961
730.226	0.091889
730.545	0.091799
730.864	0.091661
731.182	0.091574
731.501	0.091542
731.820	0.091561
732.138	0.091569
732.457	0.091511
732.775	0.091463
733.093	0.091496
733.412	0.091498
733.730	0.091436
734.048	0.091363
734.367	0.091171
734.685	0.090925
735.003	0.090627
735.321	0.090388
735.639	0.090189
735.957	0.090014
736.275	0.089912
736.593	0.089910
736.910	0.089914
737.228	0.089928
737.546	0.089976
737.863	0.089944
738.181	0.089799
738.499	0.089675
738.816	0.089518
739.134	0.089414
739.451	0.089346
739.768	0.089195
740.086	0.088997
740.403	0.088820
740.720	0.088589
741.038	0.088410
741.355	0.088237
741.672	0.088003
741.989	0.087774
742.306	0.087487
742.623	0.087113
742.940	0.086774
743.257	0.086286
743.573	0.085791
743.890	0.085358
744.207	0.084880
744.523	0.084508
744.840	0.084275
745.157	0.083980
745.473	0.083643
745.790	0.083410
746.106	0.083012
746.422	0.082786
746.739	0.082597
747.055	0.082368
747.371	0.082222
747.687	0.082266
748.004	0.082292
748.320	0.082463
748.636	0.082501
748.952	0.082514
749.268	0.082660
749.584	0.082808
749.899	0.083014
750.215	0.083212
750.531	0.083305
750.847	0.083401
751.162	0.083519
751.478	0.083587
751.793	0.083593
752.109	0.083649
752.424	0.083645
752.740	0.083751
753.055	0.083840
753.370	0.083988
753.686	0.084279
754.001	0.084656
754.316	0.084989
754.631	0.085249
754.946	0.085434
755.261	0.085639
755.576	0.085822
755.891	0.085909
756.206	0.085928
756.521	0.085873
756.836	0.085882
757.150	0.085950
757.465	0.086073
757.780	0.086102
758.094	0.086217
758.409	0.086323
758.723	0.086485
759.038	0.086593
759.352	0.086700
759.667	0.086720
759.981	0.086699
760.295	0.086568
760.609	0.086375
760.923	0.086180
761.238	0.085934
761.552	0.085731
761.866	0.085599
762.180	0.085539
762.493	0.085577
762.807	0.085567
763.121	0.085617
763.435	0.085564
763.749	0.085394
764.062	0.085169
764.376	0.084983
764.689	0.084739
765.003	0.084536
765.316	0.084376
765.630	0.084407
765.943	0.084276
766.257	0.084261
766.570	0.084128
766.883	0.083994
767.196	0.083846
767.509	0.083571
767.822	0.083366
768.135	0.083193
768.448	0.082984
768.761	0.082723
769.074	0.082423
769.387	0.082212
769.700	0.081950
770.013	0.081802
770.325	0.081705
770.638	0.081666
770.950	0.081564
771.263	0.081414
771.575	0.081298
771.888	0.081025
772.200	0.080653
772.513	0.080404
772.825	0.080044
773.137	0.079785
773.449	0.079581
773.761	0.079279
774.074	0.079079
774.386	0.078901
774.698	0.078644
775.010	0.078370
775.321	0.078077
775.633	0.077830
775.945	0.077612
776.257	0.077483
776.568	0.077261
776.880	0.077193
777.192	0.077116
777.503	0.077168
777.815	0.077273
778.126	0.077396
778.438	0.077535
778.749	0.077770
779.060	0.078024
779.372	0.078208
779.683	0.078403
779.994	0.078528
780.305	0.078643
780.616	0.078761
780.927	0.078917
781.238	0.078937
781.549	0.079008
781.860	0.079155
782.171	0.079223
782.481	0.079254
782.792	0.079288
783.103	0.079388
783.413	0.079393
783.724	0.079378
784.034	0.079315
784.345	0.079218
784.655	0.079088
784.966	0.078953
785.276	0.078851
785.586	0.078643
785.896	0.078496
786.207	0.078400
786.517	0.078387
786.827	0.078476
787.137	0.078453
787.447	0.078383
787.757	0.078549
788.066	0.078563
788.376	0.078469
788.686	0.078503
788.996	0.078597
789.305	0.078617
789.615	0.078567
789.925	0.078550
790.234	0.078527
790.544	0.078638
790.853	0.078691
791.162	0.078820
791.472	0.079074
791.781	0.079134
792.090	0.079310
792.399	0.079366
792.708	0.079308
793.017	0.079221
793.326	0.078988
793.635	0.078873
793.944	0.078744
794.253	0.078507
794.562	0.078346
794.871	0.078338
795.179	0.078158
795.488	0.078098
795.797	0.078046
796.105	0.077995
796.414	0.077982
796.722	0.077929
797.031	0.077726
797.339	0.077616
797.647	0.077284
797.956	0.076823
798.264	0.076339
798.572	0.075863
798.880	0.075553
799.188	0.075372
799.496	0.075090
799.804	0.075013
800.112	0.074862
800.420	0.074773
800.728	0.074742
801.035	0.074644
801.343	0.074251
801.651	0.073936
801.958	0.073416
802.266	0.073300
802.573	0.073284
802.881	0.073358
803.188	0.073386
803.496	0.073517
803.803	0.073661
804.110	0.073871
804.417	0.073800
804.724	0.073873
805.032	0.073902
805.339	0.073768
805.646	0.073658
805.953	0.073557
806.259	0.073504
806.566	0.073456
806.873	0.073382
807.180	0.073380
807.486	0.073405
807.793	0.073540
808.100	0.073765
808.406	0.073860
808.713	0.073762
809.019	0.073383
809.326	0.073034
809.632	0.072718
809.938	0.072196
810.244	0.071580
810.551	0.071066
810.857	0.070783
811.163	0.070594
811.469	0.070364
811.775	0.070232
812.081	0.070079
812.387	0.070063
812.692	0.069910
812.998	0.069847
813.304	0.069719
813.610	0.069649
813.915	0.069546
814.221	0.069503
814.526	0.069405
814.832	0.069360
815.137	0.069323
815.443	0.069424
815.748	0.069361
816.053	0.069177
816.358	0.069034
816.664	0.069014
816.969	0.069093
817.274	0.069189
817.579	0.069083
817.884	0.068918
818.189	0.068810
818.493	0.068805
818.798	0.068835
819.103	0.068656
819.408	0.068452
819.712	0.068410
820.017	0.068134
820.321	0.067920
820.626	0.067802
820.930	0.067360
821.235	0.067240
821.539	0.067007
821.843	0.066940
822.148	0.066793
822.452	0.066933
822.756	0.067068
823.060	0.066986
823.364	0.067144
823.668	0.067063
823.972	0.067034
824.276	0.066962
824.580	0.066989
824.883	0.066990
825.187	0.066922
825.491	0.067113
825.795	0.067103
826.098	0.067150
826.402	0.066936
826.705	0.066980
827.008	0.066925
827.312	0.066997
827.615	0.066770
827.918	0.066476
828.222	0.066088
828.525	0.065887
828.828	0.065677
829.131	0.065669
829.434	0.065569
829.737	0.064789
830.040	0.064344
830.343	0.063919
830.645	0.063539
830.948	0.063115
831.251	0.062659
831.553	0.062362
831.856	0.061963
832.159	0.061990
832.461	0.061820
832.764	0.062052
833.066	0.061651
833.368	0.061379
833.671	0.060995
833.973	0.061069
834.275	0.060989
834.577	0.060865
834.879	0.060724
835.181	0.060360
835.483	0.059633
835.785	0.059105
836.087	0.059012
836.389	0.058769
836.690	0.058113
836.992	0.057580
837.294	0.056932
837.595	0.055994
837.897	0.055211
838.198	0.054451
838.500	0.053649
838.801	0.052769
839.103	0.051462
839.404	0.051011
839.705	0.050427
840.006	0.050260
840.307	0.049852
840.608	0.049870
840.910	0.049819
841.210	0.050104
841.511	0.050096
841.812	0.050444
842.113	0.050645
842.414	0.050501
842.715	0.050087
843.015	0.049683
843.316	0.049064
843.616	0.048449
843.917	0.048165
844.217	0.047291
844.518	0.046554
844.818	0.046240
845.118	0.046319
845.419	0.047293
845.719	0.047195
846.019	0.046448
846.319	0.046346
846.619	0.046201
846.919	0.046091
847.219	0.046376
847.519	0.045510
847.819	0.045540
848.118	0.044997
848.418	0.044508
848.718	0.043812
849.017	0.043470
849.317	0.043739
849.616	0.044457
849.916	0.045159
850.215	0.045613
850.515	0.046363
850.814	0.047037
851.113	0.047332
851.412	0.047545
851.712	0.047610
852.011	0.047725
852.310	0.048343
852.609	0.048512
852.908	0.048581
853.206	0.048476
853.505	0.048857
853.804	0.049134
854.103	0.049194
854.401	0.049263
854.700	0.049601
854.999	0.049676
855.297	0.049877
855.595	0.049896
855.894	0.049710
856.192	0.049659
856.491	0.049600
856.789	0.049295
857.087	0.048817
857.385	0.048356
857.683	0.047872
857.981	0.047485
858.279	0.047137
858.577	0.046497
858.875	0.045857
859.173	0.045453
859.471	0.045394
859.768	0.044740
860.066	0.044372
860.363	0.043782
860.661	0.043191
860.959	0.042832
861.256	0.043200
861.553	0.042882
861.851	0.042279
862.148	0.041656
862.445	0.041015
862.742	0.040667
863.039	0.040031
863.337	0.040448
863.634	0.040062
863.931	0.039441
864.227	0.038824
864.524	0.038578
864.821	0.038149
865.118	0.037816
865.415	0.037447
865.711	0.036653
866.008	0.035236
866.304	0.034795
866.601	0.034530
866.897	0.034371
867.194	0.034069
867.490	0.033264
867.786	0.033121
868.082	0.032742
868.379	0.032560
868.675	0.032308
868.971	0.032260
869.267	0.032477
869.563	0.032370
869.859	0.032210
870.154	0.032215
870.450	0.032326
870.746	0.031890
871.042	0.032104
871.337	0.032391
871.633	0.032471
871.928	0.032832
872.224	0.033083
872.519	0.032487
872.815	0.032028
873.110	0.032396
873.405	0.031641
873.700	0.031254
873.995	0.031274
874.291	0.031513
874.586	0.032270
874.881	0.032318
875.175	0.032213
875.470	0.032415
875.765	0.031691
876.060	0.031874
876.355	0.032284
876.649	0.031788
876.944	0.032104
877.238	0.032266
877.533	0.032196
877.827	0.032530
878.122	0.032551
878.416	0.033321
878.710	0.033781
879.005	0.034202
879.299	0.033414
879.593	0.033588
879.887	0.033627
880.181	0.032619
880.475	0.033041
880.769	0.032452
881.063	0.032572
881.356	0.032542
881.650	0.031976
881.944	0.032233
882.238	0.014629
882.531	0.034083
882.825	0.027615
883.118	0.007444
883.412	0.035243
883.705	0.024022
883.998	0.031255
884.291	0.030231
884.585	0.024110
884.878	0.031945
>>>>>>>>>> END of Data <<<<<<<<<<
>>>>>>>>>> Raw Data Start <<<<<<<<
190.664	-409
191.040	7
191.415	7
191.791	4
192.166	6
192.542	10
192.917	6
193.293	6
193.668	4
194.044	6
194.419	-11
194.794	9
195.170	9
195.545	9
195.920	10
196.296	10
196.671	10
197.046	11
197.421	11
197.796	12
198.171	13
198.546	13
198.922	13
199.297	14
199.672	14
200.047	15
200.422	15
200.796	15
201.171	15
201.546	15
201.921	15
202.296	15
202.671	15
203.045	15
203.420	16
203.795	16
204.170	16
204.544	16
204.919	16
205.294	16
205.668	16
206.043	16
206.417	15
206.792	16
207.166	15
207.541	15
207.915	15
208.289	15
208.664	15
209.038	14
209.412	15
209.787	15
210.161	15
210.535	15
210.909	15
211.284	15
211.658	15
212.032	14
212.406	15
212.780	14
213.154	14
213.528	14
213.902	14
214.276	15
214.650	14
215.024	15
215.398	15
215.772	14
216.145	15
216.519	15
216.893	15
217.267	15
217.640	15
218.014	15
218.388	15
218.761	15
219.135	15
219.508	15
219.882	15
220.256	15
220.629	16
221.003	16
221.376	16
221.749	16
222.123	16
222.496	16
222.869	16
223.243	16
223.616	16
223.989	16
224.362	16
224.736	16
225.109	16
225.482	16
225.855	16
226.228	16
226.601	16
226.974	16
227.347	16
227.720	16
228.093	16
228.466	16
228.839	16
229.212	16
229.585	15
229.957	15
230.330	16
230.703	16
231.076	16
231.448	16
231.821	16
232.194	16
232.566	16
232.939	16
233.311	15
233.684	16
234.056	16
234.429	15
234.801	15
235.174	16
235.546	16
235.918	16
236.291	16
236.663	16
237.035	16
237.408	17
237.780	17
238.152	16
238.524	17
238.896	16
239.268	16
239.641	17
240.013	17
240.385	17
240.757	17
241.129	17
241.500	17
241.872	17
242.244	18
242.616	18
242.988	18
243.360	18
243.731	18
244.103	18
244.475	17
244.847	18
245.218	17
245.590	17
245.961	17
246.333	17
246.705	17
247.076	17
247.448	17
247.819	17
248.190	17
248.562	17
248.933	17
249.305	17
249.676	17
250.047	17
250.418	17
250.790	17
251.161	17
251.532	17
251.903	16
252.274	16
252.645	16
253.016	16
253.387	17
253.758	17
254.129	17
254.500	17
254.871	17
255.242	18
255.613	17
255.984	18
256.355	17
256.725	18
257.096	18
257.467	18
257.838	18
258.208	18
258.579	18
258.949	18
259.320	18
259.690	19
260.061	19
260.431	19
260.802	19
261.172	19
261.543	19
261.913	19
262.283	19
262.654	19
263.024	19
263.394	19
263.764	18
264.135	19
264.505	19
264.875	19
265.245	19
265.615	19
265.985	19
266.355	19
266.725	19
267.095	19
267.465	19
267.835	18
268.205	18
268.575	18
268.944	18
269.314	18
269.684	18
270.054	17
270.423	17
270.793	17
271.163	17
271.532	17
271.902	17
272.271	17
272.641	17
273.010	17
273.380	17
273.749	17
274.119	17
274.488	17
274.857	17
275.227	17
275.596	18
275.965	18
276.335	18
276.704	18
277.073	19
277.442	19
277.811	19
278.180	19
278.549	20
278.918	20
279.287	20
279.656	20
280.025	21
280.394	20
280.763	21
281.132	21
281.501	21
281.869	21
282.238	20
282.607	20
282.976	20
283.344	20
283.713	20
284.081	20
284.450	20
284.819	20
285.187	20
285.556	20
285.924	20
286.292	20
286.661	19
287.029	19
287.398	19
287.766	19
288.134	20
288.502	20
288.871	20
289.239	20
289.607	20
289.975	20
290.343	20
290.711	20
291.079	20
291.447	20
291.815	20
292.183	20
292.551	20
292.919	20
293.287	20
293.655	19
294.022	19
294.390	19
294.758	19
295.126	18
295.493	18
295.861	18
296.229	18
296.596	17
296.964	17
297.331	17
297.699	17
298.066	18
298.434	18
298.801	17
299.168	17
299.536	17
299.903	17
300.270	17
300.638	17
301.005	18
301.372	18
301.739	18
302.106	19
302.473	19
302.840	19
303.207	19
303.574	19
303.941	19
304.308	20
304.675	20
305.042	20
305.409	20
305.776	20
306.143	20
306.509	21
306.876	21
307.243	21
307.610	21
307.976	21
308.343	21
308.709	21
309.076	21
309.442	21
309.809	21
310.175	21
310.542	21
310.908	22
311.275	22
311.641	22
312.007	22
312.373	22
312.740	22
313.106	23
313.472	22
313.838	22
314.204	23
314.570	23
314.936	24
315.302	24
315.668	25
316.034	25
316.400	25
316.766	25
317.132	26
317.498	26
317.864	27
318.230	27
318.595	28
318.961	28
319.327	28
319.692	29
320.058	30
320.424	31
320.789	32
321.155	33
321.520	34
321.886	35
322.251	36
322.616	37
322.982	38
323.347	40
323.712	41
324.078	43
324.443	44
324.808	46
325.173	47
325.539	49
325.904	50
326.269	52
326.634	53
326.999	55
327.364	57
327.729	58
328.094	60
328.459	62
328.823	63
329.188	65
329.553	67
329.918	69
330.283	70
330.647	71
331.012	73
331.377	75
331.741	77
332.106	78
332.470	80
332.835	82
333.199	84
333.564	86
333.928	88
334.293	90
334.657	92
335.021	94
335.386	96
335.750	98
336.114	100
336.478	102
336.843	105
337.207	107
337.571	108
337.935	111
338.299	113
338.663	115
339.027	117
339.391	119
339.755	121
340.119	123
340.483	126
340.846	127
341.210	130
341.574	132
341.938	134
342.301	135
342.665	137
343.029	139
343.392	141
343.756	143
344.119	145
344.483	147
344.846	149
345.210	150
345.573	152
345.937	154
346.300	156
346.663	157
347.027	159
347.390	160
347.753	162
348.116	163
348.479	164
348.843	166
349.206	167
349.569	169
349.932	170
350.295	171
350.658	172
351.021	173
351.383	174
351.746	175
352.109	176
352.472	177
352.835	178
353.197	179
353.560	180
353.923	181
354.285	182
354.648	183
355.011	184
355.373	185
355.736	186
356.098	187
356.461	187
356.823	188
357.185	188
357.548	189
357.910	190
358.272	191
358.635	192
358.997	193
359.359	193
359.721	195
360.083	195
360.445	196
360.807	196
361.169	197
361.531	197
361.893	198
362.255	198
362.617	199
362.979	199
363.341	200
363.703	201
364.064	201
364.426	202
364.788	203
365.149	203
365.511	204
365.873	204
366.234	204
366.596	205
366.957	205
367.319	206
367.680	206
368.042	206
368.403	207
368.764	207
369.126	207
369.487	207
369.848	207
370.209	207
370.570	207
370.931	207
371.293	207
371.654	207
372.015	207
372.376	206
372.737	207
373.098	206
373.458	206
373.819	206
374.180	206
374.541	207
374.902	207
375.263	208
375.623	208
375.984	209
376.345	210
376.705	210
377.066	210
377.426	211
377.787	212
378.147	212
378.508	213
378.868	213
379.228	213
379.589	214
379.949	215
380.309	215
380.670	216
381.030	216
381.390	217
381.750	217
382.110	218
382.470	218
382.830	218
383.190	218
383.550	218
383.910	218
384.270	219
384.630	219
384.990	220
385.350	220
385.709	221
386.069	221
386.429	221
386.788	222
387.148	222
387.508	222
387.867	222
388.227	223
388.586	224
388.946	224
389.305	226
389.665	227
390.024	228
390.383	229
390.743	230
391.102	231
391.461	232
391.820	232
392.179	233
392.539	233
392.898	233
393.257	234
393.616	235
393.975	236
394.334	237
394.693	239
395.051	241
395.410	242
395.769	244
396.128	245
396.487	246
396.845	246
397.204	247
397.563	247
397.921	248
398.280	248
398.638	249
398.997	249
399.355	250
399.714	251
400.072	252
400.431	253
400.789	254
401.147	255
401.506	256
401.864	257
402.222	258
402.580	258
402.938	259
403.297	259
403.655	259
404.013	259
404.371	259
404.729	260
405.087	260
405.444	261
405.802	262
406.160	263
406.518	264
406.876	264
407.233	265
407.591	266
407.949	266
408.306	267
408.664	268
409.022	268
409.379	269
409.737	270
410.094	271
410.451	272
410.809	273
411.166	275
411.523	276
411.881	278
412.238	279
412.595	280
412.952	281
413.310	282
413.667	283
414.024	284
414.381	285
414.738	287
415.095	288
415.452	290
415.809	291
416.165	292
416.522	294
416.879	296
417.236	299
417.593	302
417.949	305
418.306	308
418.663	312
419.019	316
419.376	320
419.732	324
420.089	328
420.445	332
420.802	335
421.158	339
421.514	342
421.871	345
422.227	348
422.583	350
422.939	353
423.295	355
423.652	358
424.008	360
424.364	363
424.720	364
425.076	365
425.432	367
425.788	369
426.143	371
426.499	374
426.855	376
427.211	379
427.567	382
427.922	385
428.278	387
428.634	389
428.989	391
429.345	393
429.700	396
430.056	399
430.411	402
430.767	405
431.122	408
431.478	411
431.833	414
432.188	417
432.543	420
432.899	422
433.254	425
433.609	426
433.964	427
434.319	429
434.674	430
435.029	432
435.384	435
435.739	438
436.094	442
436.449	447
436.804	452
437.158	457
437.513	463
437.868	470
438.223	477
438.577	484
438.932	492
439.287	500
439.641	508
439.996	516
440.350	524
440.704	532
441.059	541
441.413	549
441.768	558
442.122	566
442.476	574
442.830	581
443.185	589
443.539	596
443.893	604
444.247	610
444.601	616
444.955	621
445.309	625
445.663	629
446.017	632
446.371	636
446.724	638
447.078	641
447.432	643
447.786	645
448.139	646
448.493	648
448.847	649
449.200	649
449.554	650
449.907	651
450.261	652
450.614	653
450.968	654
451.321	655
451.674	657
452.027	658
452.381	660
452.734	662
453.087	664
453.440	667
453.793	670
454.146	674
454.499	680
454.852	686
455.205	693
455.558	701
455.911	708
456.264	716
456.617	723
456.970	730
457.322	736
457.675	742
458.028	748
458.380	752
458.733	757
459.086	762
459.438	767
459.791	774
460.143	781
460.496	790
460.848	800
461.200	810
461.553	821
461.905	832
462.257	842
462.609	850
462.961	858
463.314	865
463.666	872
464.018	878
464.370	884
464.722	891
465.074	898
465.426	903
465.777	909
466.129	914
466.481	918
466.833	921
467.184	922
467.536	923
467.888	922
468.239	921
468.591	921
468.943	921
469.294	921
469.646	923
469.997	927
470.348	933
470.700	940
471.051	950
471.402	961
471.754	974
472.105	988
472.456	1002
472.807	1019
473.158	1037
473.509	1056
473.860	1077
474.211	1098
474.562	1121
474.913	1144
475.264	1169
475.615	1193
475.966	1218
476.316	1241
476.667	1266
477.018	1290
477.368	1315
477.719	1340
478.070	1364
478.420	1387
478.771	1410
479.121	1432
479.472	1455
479.822	1478
480.172	1504
480.523	1533
480.873	1574
481.223	1641
481.573	1740
481.924	1865
482.274	2004
482.624	2151
482.974	2298
483.324	2426
483.674	2523
484.024	2590
484.374	2634
484.724	2663
485.073	2684
485.423	2701
485.773	2718
486.123	2733
486.472	2749
486.822	2763
487.172	2776
487.521	2786
487.871	2791
488.220	2783
488.570	2748
488.919	2681
489.268	2589
489.618	2480
489.967	2364
490.316	2247
490.666	2145
491.015	2074
491.364	2031
491.713	2011
492.062	2005
492.411	2007
492.760	2014
493.109	2022
493.458	2031
493.807	2038
494.156	2044
494.505	2050
494.853	2057
495.202	2066
495.551	2078
495.900	2089
496.248	2102
496.597	2115
496.945	2127
497.294	2138
497.642	2151
497.991	2166
498.339	2183
498.688	2201
499.036	2219
499.384	2235
499.732	2250
500.081	2261
500.429	2271
500.777	2281
501.125	2290
501.473	2299
501.821	2309
502.169	2318
502.517	2326
502.865	2331
503.213	2335
503.561	2337
503.908	2339
504.256	2339
504.604	2339
504.952	2338
505.299	2335
505.647	2330
505.994	2324
506.342	2317
506.689	2310
507.037	2304
507.384	2300
507.732	2298
508.079	2295
508.426	2293
508.774	2292
509.121	2289
509.468	2286
509.815	2282
510.162	2279
510.509	2274
510.856	2270
511.203	2264
511.550	2259
511.897	2256
512.244	2250
512.591	2246
512.938	2242
513.284	2238
513.631	2234
513.978	2228
514.324	2223
514.671	2216
515.018	2210
515.364	2204
515.711	2199
516.057	2193
516.403	2188
516.750	2182
517.096	2175
517.443	2166
517.789	2159
518.135	2151
518.481	2146
518.827	2139
519.173	2132
519.519	2126
519.865	2120
520.211	2115
520.557	2111
520.903	2107
521.249	2103
521.595	2101
521.941	2097
522.287	2094
522.632	2090
522.978	2088
523.324	2086
523.669	2086
524.015	2088
524.360	2093
524.706	2100
525.051	2109
525.397	2119
525.742	2131
526.087	2144
526.433	2156
526.778	2165
527.123	2173
527.468	2181
527.813	2187
528.158	2194
528.504	2203
528.849	2214
529.193	2230
529.538	2248
529.883	2271
530.228	2297
530.573	2325
530.918	2355
531.263	2384
531.607	2411
531.952	2435
532.296	2456
532.641	2473
532.986	2486
533.330	2499
533.675	2512
534.019	2530
534.363	2553
534.708	2579
535.052	2609
535.396	2641
535.741	2672
536.085	2700
536.429	2725
536.773	2746
537.117	2762
537.461	2777
537.805	2790
538.149	2805
538.493	2821
538.837	2838
539.181	2858
539.524	2883
539.868	2913
540.212	2945
540.556	2980
540.899	3017
541.243	3049
541.586	3076
541.930	3098
542.273	3114
542.617	3126
542.960	3140
543.304	3157
543.647	3180
543.990	3210
544.333	3243
544.677	3277
545.020	3309
545.363	3336
545.706	3357
546.049	3372
546.392	3381
546.735	3384
547.078	3385
547.421	3387
547.764	3390
548.106	3395
548.449	3404
548.792	3420
549.135	3442
549.477	3469
549.820	3495
550.162	3518
550.505	3536
550.847	3549
551.190	3557
551.532	3562
551.875	3569
552.217	3578
552.559	3589
552.901	3606
553.244	3627
553.586	3649
553.928	3673
554.270	3695
554.612	3711
554.954	3725
555.296	3736
555.638	3746
555.980	3758
556.322	3773
556.663	3795
557.005	3827
557.347	3866
557.689	3908
558.030	3949
558.372	3988
558.713	4023
559.055	4056
559.396	4087
559.738	4121
560.079	4158
560.421	4201
560.762	4250
561.103	4305
561.444	4366
561.786	4429
562.127	4497
562.468	4570
562.809	4651
563.150	4740
563.491	4837
563.832	4944
564.173	5066
564.514	5209
564.855	5380
565.195	5589
565.536	5840
565.877	6133
566.218	6466
566.558	6842
566.899	7254
567.239	7699
567.580	8164
567.920	8644
568.261	9126
568.601	9620
568.941	10131
569.282	10657
569.622	11203
569.962	11771
570.302	12377
570.643	13001
570.983	13629
571.323	14234
571.663	14816
572.003	15367
572.343	15882
572.683	16364
573.022	16854
573.362	17371
573.702	17903
574.042	18435
574.381	18944
574.721	19426
575.061	19887
575.400	20303
575.740	20672
576.079	20997
576.419	21320
576.758	21691
577.097	22129
577.437	22609
577.776	23124
578.115	23662
578.454	24208
578.794	24706
579.133	25087
579.472	25344
579.811	25484
580.150	25517
580.489	25468
580.828	25385
581.167	25306
581.505	25249
581.844	25204
582.183	25159
582.522	25132
582.860	25120
583.199	25107
583.538	25059
583.876	24931
584.215	24697
584.553	24346
584.891	23887
585.230	23328
585.568	22715
585.906	22094
586.245	21536
586.583	21057
586.921	20662
587.259	20304
587.597	19942
587.935	19566
588.273	19181
588.611	18822
588.949	18503
589.287	18234
589.625	18023
589.963	17854
590.300	17718
590.638	17591
590.976	17450
591.313	17287
591.651	17131
591.989	16996
592.326	16885
592.664	16788
593.001	16709
593.338	16658
593.676	16630
594.013	16634
594.350	16690
594.687	16789
595.025	16899
595.362	16998
595.699	17065
596.036	17103
596.373	17103
596.710	17059
597.047	16988
597.384	16902
597.720	16807
598.057	16730
598.394	16672
598.731	16637
599.067	16629
599.404	16652
599.741	16714
600.077	16803
600.414	16904
600.750	17009
601.087	17086
601.423	17119
601.759	17113
602.096	17077
602.432	17019
602.768	16936
603.104	16823
603.440	16686
603.776	16539
604.112	16381
604.448	16221
604.784	16053
605.120	15874
605.456	15701
605.792	15520
606.128	15329
606.463	15134
606.799	14939
607.135	14760
607.470	14584
607.806	14409
608.142	14240
608.477	14076
608.812	13918
609.148	13759
609.483	13593
609.819	13423
610.154	13261
610.489	13111
610.824	12980
611.159	12869
611.494	12758
611.830	12659
612.165	12562
612.500	12453
612.834	12328
613.169	12186
613.504	12030
613.839	11858
614.174	11665
614.509	11470
614.843	11276
615.178	11092
615.512	10909
615.847	10730
616.182	10553
616.516	10373
616.850	10183
617.185	9986
617.519	9787
617.853	9573
618.188	9352
618.522	9149
618.856	8977
619.190	8827
619.524	8695
619.858	8590
620.192	8506
620.526	8431
620.860	8355
621.194	8284
621.528	8214
621.862	8144
622.195	8060
622.529	7971
622.863	7879
623.196	7787
623.530	7694
623.864	7601
624.197	7507
624.530	7416
624.864	7334
625.197	7248
625.531	7151
625.864	7035
626.197	6911
626.530	6777
626.863	6627
627.196	6465
627.529	6301
627.862	6140
628.195	5980
628.528	5821
628.861	5670
629.194	5534
629.527	5404
629.860	5276
630.192	5150
630.525	5032
630.858	4923
631.190	4819
631.523	4719
631.855	4625
632.188	4543
632.520	4466
632.852	4394
633.185	4320
633.517	4248
633.849	4184
634.182	4124
634.514	4067
634.846	4016
635.178	3971
635.510	3932
635.842	3895
636.174	3860
636.506	3824
636.837	3790
637.169	3755
637.501	3719
637.833	3679
638.164	3634
638.496	3585
638.828	3530
639.159	3468
639.491	3400
639.822	3331
640.154	3261
640.485	3192
640.816	3123
641.147	3056
641.479	2992
641.810	2929
642.141	2867
642.472	2808
642.803	2748
643.134	2692
643.465	2643
643.796	2605
644.127	2577
644.458	2563
644.789	2562
645.119	2576
645.450	2599
645.781	2624
646.111	2650
646.442	2672
646.773	2689
647.103	2702
647.433	2713
647.764	2725
648.094	2742
648.425	2762
648.755	2788
649.085	2818
649.415	2848
649.745	2881
650.075	2914
650.405	2951
650.735	3036
651.065	3655
651.395	5561
651.725	8688
652.055	12324
652.385	15955
652.715	19585
653.044	23217
653.374	26855
653.704	30498
654.033	33496
654.363	35387
654.692	36636
655.022	37445
655.351	37975
655.680	38301
656.010	38477
656.339	38556
656.668	38575
656.997	38564
657.326	38530
657.655	38436
657.984	37795
658.313	35858
658.642	32688
658.971	29000
659.300	25312
659.629	21625
659.958	17938
660.286	14252
660.615	10567
660.944	7535
661.272	5615
661.601	4339
661.929	3499
662.258	2934
662.586	2566
662.915	2342
663.243	2212
663.571	2139
663.899	2094
664.228	2066
664.556	2047
664.884	2034
665.212	2024
665.540	2017
665.868	2014
666.196	2011
666.524	2010
666.852	2011
667.179	2019
667.507	2034
667.835	2056
668.162	2086
668.490	2122
668.818	2166
669.145	2211
669.473	2257
669.800	2298
670.127	2335
670.455	2365
670.782	2390
671.109	2413
671.436	2431
671.764	2446
672.091	2459
672.418	2470
672.745	2479
673.072	2488
673.399	2498
673.726	2510
674.053	2518
674.379	2520
674.706	2518
675.033	2517
675.359	2513
675.686	2506
676.013	2503
676.339	2504
676.666	2512
676.992	2530
677.318	2555
677.645	2585
677.971	2611
678.297	2636
678.624	2660
678.950	2682
679.276	2703
679.602	2724
679.928	2745
680.254	2772
680.580	2806
680.906	2851
681.232	2905
681.558	2962
681.883	3017
682.209	3070
682.535	3117
682.860	3161
683.186	3197
683.511	3225
683.837	3243
684.162	3257
684.488	3268
684.813	3280
685.138	3291
685.464	3300
685.789	3307
686.114	3315
686.439	3326
686.764	3337
687.089	3344
687.414	3344
687.739	3333
688.064	3311
688.389	3285
688.714	3253
689.039	3220
689.363	3185
689.688	3146
690.013	3109
690.337	3076
690.662	3049
690.986	3024
691.311	2999
691.635	2974
691.959	2951
692.284	2935
692.608	2930
692.932	2935
693.256	2944
693.580	2956
693.904	2972
694.228	2990
694.552	3007
694.876	3014
695.200	3011
695.524	2997
695.848	2977
696.172	2952
696.495	2926
696.819	2899
697.143	2871
697.466	2842
697.790	2817
698.113	2801
698.437	2792
698.760	2791
699.083	2788
699.407	2780
699.730	2765
700.053	2741
700.376	2709
700.699	2665
701.022	2609
701.345	2548
701.668	2492
701.991	2445
702.314	2413
702.637	2398
702.960	2403
703.283	2428
703.605	2472
703.928	2532
704.251	2599
704.573	2666
704.896	2726
705.218	2775
705.540	2814
705.863	2845
706.185	2870
706.507	2892
706.830	2913
707.152	2934
707.474	2958
707.796	2984
708.118	3011
708.440	3038
708.762	3061
709.084	3079
709.406	3089
709.728	3091
710.049	3083
710.371	3070
710.693	3048
711.014	3026
711.336	3003
711.658	2983
711.979	2965
712.301	2948
712.622	2931
712.943	2909
713.265	2884
713.586	2858
713.907	2833
714.228	2810
714.549	2792
714.870	2780
715.191	2774
715.512	2773
715.833	2768
716.154	2760
716.475	2747
716.796	2729
717.117	2703
717.437	2672
717.758	2637
718.078	2601
718.399	2566
718.719	2536
719.040	2509
719.360	2489
719.681	2473
720.001	2463
720.321	2458
720.642	2455
720.962	2457
721.282	2462
721.602	2469
721.922	2478
722.242	2489
722.562	2505
722.882	2523
723.202	2540
723.521	2556
723.841	2573
724.161	2590
724.481	2607
724.800	2624
725.120	2647
725.439	2674
725.759	2705
726.078	2740
726.398	2784
726.717	2837
727.036	2897
727.355	2960
727.675	3021
727.994	3080
728.313	3136
728.632	3184
728.951	3224
729.270	3258
729.589	3291
729.908	3331
730.226	3375
730.545	3425
730.864	3479
731.182	3537
731.501	3596
731.820	3652
732.138	3700
732.457	3743
732.775	3782
733.093	3813
733.412	3831
733.730	3835
734.048	3826
734.367	3808
734.685	3784
735.003	3757
735.321	3733
735.639	3713
735.957	3697
736.275	3683
736.593	3662
736.910	3630
737.228	3586
737.546	3529
737.863	3464
738.181	3392
738.499	3315
738.816	3241
739.134	3167
739.451	3092
739.768	3018
740.086	2946
740.403	2879
740.720	2818
741.038	2760
741.355	2703
741.672	2648
741.989	2591
742.306	2532
742.623	2472
742.940	2413
743.257	2358
743.573	2310
743.890	2271
744.207	2242
744.523	2222
744.840	2208
745.157	2200
745.473	2198
745.790	2206
746.106	2223
746.422	2249
746.739	2281
747.055	2319
747.371	2363
747.687	2409
748.004	2452
748.320	2490
748.636	2523
748.952	2558
749.268	2591
749.584	2624
749.899	2653
750.215	2682
750.531	2716
750.847	2754
751.162	2793
751.478	2830
751.793	2869
752.109	2910
752.424	2954
752.740	2999
753.055	3051
753.370	3112
753.686	3183
754.001	3260
754.316	3341
754.631	3426
754.946	3518
755.261	3614
755.576	3707
755.891	3796
756.206	3885
756.521	3980
756.836	4075
757.150	4167
757.465	4247
757.780	4316
758.094	4374
758.409	4419
758.723	4447
759.038	4458
759.352	4457
759.667	4444
759.981	4421
760.295	4398
760.609	4381
760.923	4370
761.238	4363
761.552	4359
761.866	4352
762.180	4342
762.493	4318
762.807	4272
763.121	4202
763.435	4115
763.749	4020
764.062	3930
764.376	3855
764.689	3804
765.003	3776
765.316	3771
765.630	3783
765.943	3804
766.257	3829
766.570	3851
766.883	3856
767.196	3846
767.509	3821
767.822	3784
768.135	3736
768.448	3684
768.761	3630
769.074	3583
769.387	3547
769.700	3525
770.013	3511
770.325	3500
770.638	3483
770.950	3454
771.263	3408
771.575	3343
771.888	3260
772.200	3165
772.513	3060
772.825	2951
773.137	2839
773.449	2728
773.761	2622
774.074	2523
774.386	2434
774.698	2361
775.010	2300
775.321	2257
775.633	2228
775.945	2212
776.257	2202
776.568	2200
776.880	2207
777.192	2223
777.503	2246
777.815	2276
778.126	2314
778.438	2361
778.749	2410
779.060	2458
779.372	2504
779.683	2548
779.994	2587
780.305	2619
780.616	2640
780.927	2654
781.238	2658
781.549	2652
781.860	2634
782.171	2610
782.481	2583
782.792	2556
783.103	2528
783.413	2499
783.724	2468
784.034	2438
784.345	2410
784.655	2385
784.966	2359
785.276	2332
785.586	2306
785.896	2280
786.207	2253
786.517	2224
786.827	2194
787.137	2167
787.447	2141
787.757	2115
788.066	2091
788.376	2069
788.686	2046
788.996	2022
789.305	1998
789.615	1980
789.925	1969
790.234	1967
790.544	1971
790.853	1981
791.162	1991
791.472	1999
791.781	2003
792.090	1998
792.399	1986
792.708	1967
793.017	1946
793.326	1926
793.635	1907
793.944	1889
794.253	1874
794.562	1863
794.871	1856
795.179	1851
795.488	1845
795.797	1835
796.105	1818
796.414	1790
796.722	1754
797.031	1707
797.339	1650
797.647	1587
797.956	1520
798.264	1459
798.572	1408
798.880	1368
799.188	1338
799.496	1317
799.804	1301
800.112	1288
800.420	1278
800.728	1268
801.035	1255
801.343	1240
801.651	1228
801.958	1225
802.266	1230
802.573	1240
802.881	1254
803.188	1270
803.496	1288
803.803	1307
804.110	1323
804.417	1339
804.724	1352
805.032	1364
805.339	1374
805.646	1381
805.953	1385
806.259	1386
806.566	1384
806.873	1378
807.180	1371
807.486	1364
807.793	1355
808.100	1341
808.406	1318
808.713	1288
809.019	1253
809.326	1218
809.632	1184
809.938	1152
810.244	1123
810.551	1099
810.857	1079
811.163	1061
811.469	1042
811.775	1021
812.081	1001
812.387	982
812.692	967
812.998	955
813.304	946
813.610	939
813.915	933
814.221	928
814.526	924
814.832	920
815.137	916
815.443	910
815.748	901
816.053	889
816.358	877
816.664	866
816.969	855
817.274	847
817.579	839
817.884	835
818.189	834
818.493	833
818.798	831
819.103	826
819.408	818
819.712	808
820.017	798
820.321	787
820.626	776
820.930	766
821.235	759
821.539	756
821.843	756
822.148	758
822.452	759
822.756	758
823.060	756
823.364	751
823.668	745
823.972	737
824.276	729
824.580	723
824.883	719
825.187	718
825.491	718
825.795	718
826.098	718
826.402	717
826.705	715
827.008	710
827.312	702
827.615	691
827.918	676
828.222	660
828.525	644
828.828	628
829.131	612
829.434	597
829.737	582
830.040	570
830.343	561
830.645	553
830.948	544
831.251	536
831.553	529
831.856	523
832.159	517
832.461	510
832.764	503
833.066	496
833.368	490
833.671	486
833.973	483
834.275	479
834.577	476
834.879	472
835.181	467
835.483	462
835.785	456
836.087	448
836.389	439
836.690	428
836.992	416
837.294	403
837.595	390
837.897	377
838.198	363
838.500	351
838.801	339
839.103	330
839.404	322
839.705	315
840.006	308
840.307	304
840.608	300
840.910	298
841.210	296
841.511	294
841.812	290
842.113	287
842.414	283
842.715	278
843.015	272
843.316	266
843.616	261
843.917	256
844.217	251
844.518	248
844.818	245
845.118	243
845.419	241
845.719	240
846.019	239
846.319	238
846.619	237
846.919	236
847.219	234
847.519	233
847.819	232
848.118	232
848.418	235
848.718	242
849.017	254
849.317	271
849.616	290
849.916	313
850.215	339
850.515	366
850.814	393
851.113	418
851.412	441
851.712	461
852.011	480
852.310	497
852.609	513
852.908	527
853.206	539
853.505	550
853.804	560
854.103	568
854.401	575
854.700	577
854.999	575
855.297	568
855.595	556
855.894	540
856.192	520
856.491	497
856.789	473
857.087	448
857.385	424
857.683	403
857.981	384
858.279	366
858.577	349
858.875	334
859.173	322
859.471	312
859.768	304
860.066	297
860.363	291
860.661	286
860.959	283
861.256	279
861.553	274
861.851	269
862.148	264
862.445	259
862.742	254
863.039	250
863.337	246
863.634	243
863.931	241
864.227	240
864.524	239
864.821	240
865.118	239
865.415	237
865.711	234
866.008	230
866.304	226
866.601	221
866.897	217
867.194	214
867.490	212
867.786	211
868.082	211
868.379	212
868.675	212
868.971	213
869.267	213
869.563	213
869.859	212
870.154	211
870.450	210
870.746	209
871.042	208
871.337	208
871.633	208
871.928	209
872.224	210
872.519	212
872.815	214
873.110	214
873.405	214
873.700	214
873.995	213
874.291	213
874.586	214
874.881	215
875.175	217
875.470	220
875.765	224
876.060	228
876.355	233
876.649	238
876.944	242
877.238	246
877.533	250
877.827	253
878.122	255
878.416	256
878.710	255
879.005	255
879.299	254
879.593	253
879.887	252
880.181	251
880.475	249
880.769	247
881.063	245
881.356	242
881.650	239
881.944	236
882.238	201
882.531	185
882.825	184
883.118	196
883.412	187
883.705	189
883.998	192
884.291	198
884.585	201
884.878	206
>>>>>>>>>> END of Data <<<<<<<<<<