Date	2021年06月15日火曜日 12時04分26秒
Spectrometers	USB2+H05879
ダーク	使用
リファレンス	使用
積分時間[msec]	10
平均回数	280
ｽﾑｰｼﾞﾝｸﾞ	10
Electrical Dark	USE
ピクセル数	2048
計測モード	吸光度
保存開始波長[nm]	190.664
保存終了波長[nm]	884.878
保存ﾋﾟｯﾁ波長[nm]	全波長

>>>>>>>>>> Data Start <<<<<<<<<<<<
190.664	0.000000
191.040	0.000000
191.415	0.000000
191.791	-2.183763
192.166	-0.201037
192.542	-0.908292
192.917	0.000000
193.293	-0.446174
193.668	-0.022632
194.044	-0.439974
194.419	0.000000
194.794	-1.120225
195.170	-1.043734
195.545	-0.965549
195.920	-0.816057
196.296	-0.703399
196.671	-0.533631
197.046	-0.385299
197.421	-0.330739
197.796	-0.326844
198.171	-0.298390
198.546	-0.241779
198.922	-0.202162
199.297	-0.178366
199.672	-0.156195
200.047	-0.134107
200.422	-0.107180
200.796	-0.103603
201.171	-0.089044
201.546	-0.084704
201.921	-0.062906
202.296	-0.062756
202.671	-0.037316
203.045	-0.017343
203.420	-0.003336
203.795	-0.005989
204.170	-0.005693
204.544	-0.000306
204.919	0.000065
205.294	0.004369
205.668	0.023375
206.043	0.034440
206.417	0.015555
206.792	0.024088
207.166	0.037983
207.541	0.049159
207.915	0.044329
208.289	0.061353
208.664	0.071450
209.038	0.070889
209.412	0.080460
209.787	0.108261
210.161	0.123916
210.535	0.118493
210.909	0.123440
211.284	0.126096
211.658	0.125677
212.032	0.139107
212.406	0.124418
212.780	0.129020
213.154	0.126660
213.528	0.111432
213.902	0.108412
214.276	0.129501
214.650	0.139365
215.024	0.125443
215.398	0.123020
215.772	0.139604
216.145	0.136951
216.519	0.141652
216.893	0.155524
217.267	0.141279
217.640	0.110009
218.014	0.119720
218.388	0.118451
218.761	0.117770
219.135	0.117736
219.508	0.116743
219.882	0.105440
220.256	0.115645
220.629	0.131325
221.003	0.140662
221.376	0.150648
221.749	0.146977
222.123	0.142632
222.496	0.138385
222.869	0.147739
223.243	0.144613
223.616	0.147940
223.989	0.143237
224.362	0.144689
224.736	0.142920
225.109	0.155830
225.482	0.163219
225.855	0.152847
226.228	0.155298
226.601	0.149859
226.974	0.154183
227.347	0.156145
227.720	0.161943
228.093	0.176367
228.466	0.156871
228.839	0.157370
229.212	0.149558
229.585	0.149257
229.957	0.152087
230.330	0.153181
230.703	0.152874
231.076	0.147166
231.448	0.153538
231.821	0.161114
232.194	0.162471
232.566	0.149971
232.939	0.157595
233.311	0.157991
233.684	0.150163
234.056	0.148572
234.429	0.164927
234.801	0.166552
235.174	0.171711
235.546	0.172672
235.918	0.155497
236.291	0.159906
236.663	0.163111
237.035	0.163619
237.408	0.166536
237.780	0.172658
238.152	0.183639
238.524	0.171433
238.896	0.184662
239.268	0.179796
239.641	0.162920
240.013	0.171008
240.385	0.178326
240.757	0.167689
241.129	0.161878
241.500	0.159110
241.872	0.159099
242.244	0.156626
242.616	0.153518
242.988	0.156097
243.360	0.154801
243.731	0.159748
244.103	0.163731
244.475	0.156834
244.847	0.171462
245.218	0.178999
245.590	0.187412
245.961	0.180956
246.333	0.193056
246.705	0.188872
247.076	0.193683
247.448	0.212714
247.819	0.213456
248.190	0.222535
248.562	0.219417
248.933	0.224364
249.305	0.231367
249.676	0.240686
250.047	0.235310
250.418	0.231795
250.790	0.234738
251.161	0.245449
251.532	0.251336
251.903	0.247367
252.274	0.262347
252.645	0.251575
253.016	0.253457
253.387	0.233105
253.758	0.233036
254.129	0.226286
254.500	0.223432
254.871	0.209132
255.242	0.205632
255.613	0.194099
255.984	0.186160
256.355	0.195680
256.725	0.191293
257.096	0.190960
257.467	0.188507
257.838	0.190433
258.208	0.194398
258.579	0.190584
258.949	0.182381
259.320	0.183168
259.690	0.189160
260.061	0.185667
260.431	0.185020
260.802	0.182266
261.172	0.192129
261.543	0.193485
261.913	0.194314
262.283	0.194644
262.654	0.195106
263.024	0.186546
263.394	0.205108
263.764	0.207649
264.135	0.208927
264.505	0.213388
264.875	0.215908
265.245	0.220081
265.615	0.221789
265.985	0.235080
266.355	0.238159
266.725	0.237318
267.095	0.230947
267.465	0.223141
267.835	0.220293
268.205	0.221728
268.575	0.221759
268.944	0.220173
269.314	0.220474
269.684	0.230524
270.054	0.225915
270.423	0.237572
270.793	0.251198
271.163	0.235247
271.532	0.231175
271.902	0.221446
272.271	0.223624
272.641	0.232118
273.010	0.220153
273.380	0.209805
273.749	0.201777
274.119	0.201142
274.488	0.208049
274.857	0.211712
275.227	0.213544
275.596	0.216018
275.965	0.218174
276.335	0.206662
276.704	0.200768
277.073	0.203855
277.442	0.199172
277.811	0.205169
278.180	0.208510
278.549	0.210841
278.918	0.203197
279.287	0.203265
279.656	0.210381
280.025	0.216468
280.394	0.207452
280.763	0.220270
281.132	0.232259
281.501	0.234255
281.869	0.234019
282.238	0.229194
282.607	0.224817
282.976	0.230210
283.344	0.228895
283.713	0.227907
284.081	0.245087
284.450	0.256211
284.819	0.256058
285.187	0.265453
285.556	0.255761
285.924	0.250338
286.292	0.243092
286.661	0.247560
287.029	0.246615
287.398	0.242477
287.766	0.228341
288.134	0.227125
288.502	0.224984
288.871	0.223103
289.239	0.226759
289.607	0.230439
289.975	0.241541
290.343	0.251021
290.711	0.244439
291.079	0.243721
291.447	0.254670
291.815	0.248002
292.183	0.244902
292.551	0.246051
292.919	0.245341
293.287	0.243177
293.655	0.247168
294.022	0.248145
294.390	0.263947
294.758	0.269384
295.126	0.276418
295.493	0.291526
295.861	0.303657
296.229	0.299340
296.596	0.307792
296.964	0.306986
297.331	0.310939
297.699	0.306980
298.066	0.309159
298.434	0.314330
298.801	0.321397
299.168	0.316148
299.536	0.324727
299.903	0.328128
300.270	0.339847
300.638	0.331834
301.005	0.357416
301.372	0.359533
301.739	0.364383
302.106	0.358015
302.473	0.362415
302.840	0.370096
303.207	0.384179
303.574	0.395690
303.941	0.408328
304.308	0.421719
304.675	0.430219
305.042	0.446898
305.409	0.463606
305.776	0.471575
306.143	0.487775
306.509	0.505399
306.876	0.525634
307.243	0.546735
307.610	0.569881
307.976	0.588906
308.343	0.626135
308.709	0.653109
309.076	0.684592
309.442	0.710937
309.809	0.742842
310.175	0.783535
310.542	0.810009
310.908	0.827637
311.275	0.851283
311.641	0.884707
312.007	0.906901
312.373	0.941886
312.740	0.962539
313.106	0.993997
313.472	1.035375
313.838	1.073839
314.204	1.102076
314.570	1.124968
314.936	1.150749
315.302	1.172745
315.668	1.191872
316.034	1.217658
316.400	1.249342
316.766	1.265673
317.132	1.299967
317.498	1.328998
317.864	1.336045
318.230	1.347349
318.595	1.368795
318.961	1.385261
319.327	1.401278
319.692	1.413734
320.058	1.420545
320.424	1.436718
320.789	1.449716
321.155	1.463181
321.520	1.472302
321.886	1.490151
322.251	1.499371
322.616	1.502965
322.982	1.516370
323.347	1.521842
323.712	1.533544
324.078	1.535263
324.443	1.541441
324.808	1.541277
325.173	1.543139
325.539	1.550728
325.904	1.559585
326.269	1.566533
326.634	1.569772
326.999	1.574497
327.364	1.576700
327.729	1.583621
328.094	1.588850
328.459	1.591029
328.823	1.591163
329.188	1.597223
329.553	1.596795
329.918	1.604730
330.283	1.613112
330.647	1.617568
331.012	1.621708
331.377	1.619307
331.741	1.620947
332.106	1.628671
332.470	1.631984
332.835	1.634824
333.199	1.636233
333.564	1.640573
333.928	1.644220
334.293	1.648152
334.657	1.649980
335.021	1.656056
335.386	1.655998
335.750	1.656535
336.114	1.657234
336.478	1.659981
336.843	1.658848
337.207	1.659076
337.571	1.660896
337.935	1.660893
338.299	1.659651
338.663	1.659946
339.027	1.662667
339.391	1.665519
339.755	1.662989
340.119	1.661020
340.483	1.660843
340.846	1.665345
341.210	1.667123
341.574	1.666225
341.938	1.665604
342.301	1.666995
342.665	1.668012
343.029	1.669444
343.392	1.671008
343.756	1.673092
344.119	1.673135
344.483	1.674726
344.846	1.674869
345.210	1.673654
345.573	1.673125
345.937	1.672949
346.300	1.674333
346.663	1.673198
347.027	1.672076
347.390	1.673963
347.753	1.674516
348.116	1.675333
348.479	1.674283
348.843	1.672260
349.206	1.671170
349.569	1.673226
349.932	1.673827
350.295	1.672121
350.658	1.672749
351.021	1.673381
351.383	1.672538
351.746	1.672277
352.109	1.671700
352.472	1.672515
352.835	1.674593
353.197	1.676016
353.560	1.678440
353.923	1.678644
354.285	1.679018
354.648	1.678781
355.011	1.678588
355.373	1.681306
355.736	1.681640
356.098	1.681170
356.461	1.682997
356.823	1.685528
357.185	1.685325
357.548	1.684687
357.910	1.685931
358.272	1.685417
358.635	1.683768
358.997	1.683148
359.359	1.686452
359.721	1.686700
360.083	1.687713
360.445	1.687242
360.807	1.687586
361.169	1.687919
361.531	1.688997
361.893	1.690998
362.255	1.692845
362.617	1.693029
362.979	1.692960
363.341	1.694357
363.703	1.695325
364.064	1.695280
364.426	1.696081
364.788	1.696953
365.149	1.698252
365.511	1.698972
365.873	1.701734
366.234	1.703812
366.596	1.705447
366.957	1.704683
367.319	1.706267
367.680	1.706205
368.042	1.707067
368.403	1.708200
368.764	1.709002
369.126	1.708332
369.487	1.707746
369.848	1.707803
370.209	1.709359
370.570	1.710037
370.931	1.711087
371.293	1.712086
371.654	1.712918
372.015	1.713215
372.376	1.714472
372.737	1.714415
373.098	1.714804
373.458	1.714406
373.819	1.714996
374.180	1.717643
374.541	1.718206
374.902	1.719086
375.263	1.719920
375.623	1.720263
375.984	1.722316
376.345	1.721203
376.705	1.723111
377.066	1.724765
377.426	1.725888
377.787	1.726229
378.147	1.727122
378.508	1.726534
378.868	1.726506
379.228	1.725767
379.589	1.726448
379.949	1.726559
380.309	1.728523
380.670	1.729463
381.030	1.728637
381.390	1.730553
381.750	1.729662
382.110	1.729274
382.470	1.729580
382.830	1.730341
383.190	1.732547
383.550	1.733077
383.910	1.735756
384.270	1.736421
384.630	1.737291
384.990	1.737908
385.350	1.739067
385.709	1.739590
386.069	1.741399
386.429	1.741653
386.788	1.743801
387.148	1.743778
387.508	1.744390
387.867	1.744286
388.227	1.744096
388.586	1.745884
388.946	1.745505
389.305	1.746709
389.665	1.748894
390.024	1.749329
390.383	1.749973
390.743	1.748751
391.102	1.746886
391.461	1.745792
391.820	1.746716
392.179	1.746214
392.539	1.745897
392.898	1.746938
393.257	1.746676
393.616	1.746997
393.975	1.747970
394.334	1.747976
394.693	1.748779
395.051	1.750404
395.410	1.750018
395.769	1.751374
396.128	1.751998
396.487	1.752323
396.845	1.752076
397.204	1.751234
397.563	1.750552
397.921	1.750640
398.280	1.749360
398.638	1.748914
398.997	1.749328
399.355	1.747865
399.714	1.748257
400.072	1.746835
400.431	1.744471
400.789	1.743709
401.147	1.741990
401.506	1.741187
401.864	1.740629
402.222	1.738654
402.580	1.735364
402.938	1.734409
403.297	1.731873
403.655	1.730050
404.013	1.728035
404.371	1.726587
404.729	1.724705
405.087	1.723622
405.444	1.722146
405.802	1.721140
406.160	1.720746
406.518	1.718668
406.876	1.717769
407.233	1.716412
407.591	1.716530
407.949	1.715609
408.306	1.714449
408.664	1.713152
409.022	1.712449
409.379	1.710698
409.737	1.709441
410.094	1.708097
410.451	1.707634
410.809	1.706898
411.166	1.705184
411.523	1.704524
411.881	1.703996
412.238	1.703344
412.595	1.701689
412.952	1.700264
413.310	1.699451
413.667	1.698687
414.024	1.698513
414.381	1.697010
414.738	1.694300
415.095	1.692473
415.452	1.691097
415.809	1.689257
416.165	1.688364
416.522	1.685933
416.879	1.684187
417.236	1.682104
417.593	1.680414
417.949	1.677304
418.306	1.675934
418.663	1.675721
419.019	1.673436
419.376	1.669979
419.732	1.667246
420.089	1.665471
420.445	1.663807
420.802	1.662240
421.158	1.659233
421.514	1.656055
421.871	1.653309
422.227	1.651082
422.583	1.648801
422.939	1.646305
423.295	1.644028
423.652	1.641821
424.008	1.639706
424.364	1.637400
424.720	1.635701
425.076	1.633705
425.432	1.631403
425.788	1.628708
426.143	1.625588
426.499	1.623133
426.855	1.621143
427.211	1.618242
427.567	1.615710
427.922	1.613429
428.278	1.609351
428.634	1.607051
428.989	1.604785
429.345	1.602609
429.700	1.600740
430.056	1.598775
430.411	1.596666
430.767	1.594368
431.122	1.591358
431.478	1.587860
431.833	1.585409
432.188	1.582417
432.543	1.579263
432.899	1.576716
433.254	1.573343
433.609	1.569831
433.964	1.566895
434.319	1.563607
434.674	1.560344
435.029	1.557168
435.384	1.553533
435.739	1.550381
436.094	1.547387
436.449	1.544434
436.804	1.541397
437.158	1.538074
437.513	1.534447
437.868	1.530946
438.223	1.527197
438.577	1.523089
438.932	1.521061
439.287	1.517065
439.641	1.512989
439.996	1.509226
440.350	1.505391
440.704	1.501856
441.059	1.498274
441.413	1.494098
441.768	1.490138
442.122	1.486919
442.476	1.483186
442.830	1.479228
443.185	1.476105
443.539	1.471980
443.893	1.468099
444.247	1.463980
444.601	1.460036
444.955	1.456046
445.309	1.451528
445.663	1.447402
446.017	1.443751
446.371	1.439079
446.724	1.434954
447.078	1.431228
447.432	1.427150
447.786	1.422979
448.139	1.418576
448.493	1.414559
448.847	1.410622
449.200	1.406161
449.554	1.402029
449.907	1.397929
450.261	1.393527
450.614	1.389283
450.968	1.385465
451.321	1.381524
451.674	1.377742
452.027	1.373473
452.381	1.369098
452.734	1.365199
453.087	1.361227
453.440	1.356469
453.793	1.352050
454.146	1.348072
454.499	1.343999
454.852	1.340227
455.205	1.335847
455.558	1.332063
455.911	1.328036
456.264	1.323713
456.617	1.320027
456.970	1.316319
457.322	1.312618
457.675	1.309406
458.028	1.305915
458.380	1.302341
458.733	1.298818
459.086	1.295247
459.438	1.291736
459.791	1.288443
460.143	1.285024
460.496	1.281609
460.848	1.278285
461.200	1.274732
461.553	1.270912
461.905	1.267527
462.257	1.263589
462.609	1.260470
462.961	1.256908
463.314	1.253371
463.666	1.250170
464.018	1.246813
464.370	1.243289
464.722	1.239891
465.074	1.236249
465.426	1.233023
465.777	1.230034
466.129	1.226485
466.481	1.223185
466.833	1.220372
467.184	1.217440
467.536	1.214339
467.888	1.211271
468.239	1.208077
468.591	1.204591
468.943	1.200851
469.294	1.196877
469.646	1.193338
469.997	1.189490
470.348	1.186075
470.700	1.182736
471.051	1.179224
471.402	1.175925
471.754	1.172870
472.105	1.169965
472.456	1.166927
472.807	1.163988
473.158	1.160969
473.509	1.158365
473.860	1.155628
474.211	1.152695
474.562	1.149987
474.913	1.147180
475.264	1.144367
475.615	1.141362
475.966	1.138821
476.316	1.136229
476.667	1.133543
477.018	1.131012
477.368	1.128263
477.719	1.125391
478.070	1.122617
478.420	1.120141
478.771	1.117481
479.121	1.114897
479.472	1.112216
479.822	1.109778
480.172	1.107189
480.523	1.104600
480.873	1.102411
481.223	1.100033
481.573	1.097410
481.924	1.094147
482.274	1.090907
482.624	1.087935
482.974	1.085281
483.324	1.082234
483.674	1.079769
484.024	1.077540
484.374	1.075520
484.724	1.073775
485.073	1.072082
485.423	1.070409
485.773	1.068606
486.123	1.066989
486.472	1.065118
486.822	1.063441
487.172	1.061778
487.521	1.060003
487.871	1.058258
488.220	1.056114
488.570	1.053711
488.919	1.050936
489.268	1.048125
489.618	1.045074
489.967	1.041514
490.316	1.037765
490.666	1.034349
491.015	1.031166
491.364	1.028171
491.713	1.025401
492.062	1.022594
492.411	1.020021
492.760	1.017337
493.109	1.014722
493.458	1.012100
493.807	1.009676
494.156	1.006943
494.505	1.004258
494.853	1.001908
495.202	0.999283
495.551	0.996601
495.900	0.993944
496.248	0.991296
496.597	0.988607
496.945	0.986170
497.294	0.983729
497.642	0.981154
497.991	0.978655
498.339	0.976101
498.688	0.973639
499.036	0.971193
499.384	0.968701
499.732	0.966127
500.081	0.963818
500.429	0.961420
500.777	0.959018
501.125	0.956681
501.473	0.954263
501.821	0.951998
502.169	0.949622
502.517	0.947369
502.865	0.945171
503.213	0.942925
503.561	0.940777
503.908	0.938632
504.256	0.936338
504.604	0.933988
504.952	0.931770
505.299	0.929599
505.647	0.927433
505.994	0.925260
506.342	0.922965
506.689	0.920953
507.037	0.918809
507.384	0.916435
507.732	0.914179
508.079	0.912033
508.426	0.909889
508.774	0.907877
509.121	0.905734
509.468	0.903710
509.815	0.901613
510.162	0.899619
510.509	0.897568
510.856	0.895558
511.203	0.893575
511.550	0.891587
511.897	0.889721
512.244	0.887859
512.591	0.885853
512.938	0.883919
513.284	0.881960
513.631	0.880030
513.978	0.877955
514.324	0.876084
514.671	0.874221
515.018	0.872489
515.364	0.870613
515.711	0.868764
516.057	0.866914
516.403	0.865069
516.750	0.863196
517.096	0.861399
517.443	0.859584
517.789	0.857900
518.135	0.856077
518.481	0.854285
518.827	0.852486
519.173	0.850761
519.519	0.849060
519.865	0.847395
520.211	0.845605
520.557	0.843870
520.903	0.842054
521.249	0.840310
521.595	0.838477
521.941	0.836679
522.287	0.834778
522.632	0.832855
522.978	0.831014
523.324	0.829140
523.669	0.827348
524.015	0.825349
524.360	0.823411
524.706	0.821542
525.051	0.819669
525.397	0.817831
525.742	0.815982
526.087	0.814152
526.433	0.812228
526.778	0.810422
527.123	0.808634
527.468	0.806790
527.813	0.804976
528.158	0.803176
528.504	0.801259
528.849	0.799368
529.193	0.797539
529.538	0.795604
529.883	0.793538
530.228	0.791495
530.573	0.789538
530.918	0.787435
531.263	0.785340
531.607	0.783331
531.952	0.781296
532.296	0.779234
532.641	0.777268
532.986	0.775161
533.330	0.773138
533.675	0.771212
534.019	0.769108
534.363	0.767003
534.708	0.764893
535.052	0.762774
535.396	0.760643
535.741	0.758653
536.085	0.756433
536.429	0.754111
536.773	0.751887
537.117	0.749703
537.461	0.747304
537.805	0.744837
538.149	0.742314
538.493	0.739888
538.837	0.737412
539.181	0.734943
539.524	0.732489
539.868	0.729958
540.212	0.727481
540.556	0.724928
540.899	0.722226
541.243	0.719666
541.586	0.717086
541.930	0.714514
542.273	0.711956
542.617	0.709327
542.960	0.706600
543.304	0.704014
543.647	0.701245
543.990	0.698385
544.333	0.695454
544.677	0.692587
545.020	0.689722
545.363	0.686841
545.706	0.683966
546.049	0.681151
546.392	0.678315
546.735	0.675444
547.078	0.672598
547.421	0.669742
547.764	0.666820
548.106	0.663879
548.449	0.660755
548.792	0.657666
549.135	0.654602
549.477	0.651381
549.820	0.648343
550.162	0.645164
550.505	0.641921
550.847	0.638793
551.190	0.635549
551.532	0.632197
551.875	0.628693
552.217	0.625128
552.559	0.621741
552.901	0.618365
553.244	0.614988
553.586	0.611647
553.928	0.608380
554.270	0.605228
554.612	0.602042
554.954	0.598915
555.296	0.595721
555.638	0.592525
555.980	0.589172
556.322	0.585582
556.663	0.581993
557.005	0.578251
557.347	0.574607
557.689	0.570987
558.030	0.567367
558.372	0.563737
558.713	0.560167
559.055	0.556710
559.396	0.553231
559.738	0.549622
560.079	0.546048
560.421	0.542569
560.762	0.539091
561.103	0.535606
561.444	0.532154
561.786	0.528867
562.127	0.525540
562.468	0.522222
562.809	0.518863
563.150	0.515442
563.491	0.511992
563.832	0.508416
564.173	0.504854
564.514	0.501151
564.855	0.497432
565.195	0.493670
565.536	0.489874
565.877	0.486111
566.218	0.482373
566.558	0.478751
566.899	0.475176
567.239	0.471698
567.580	0.468366
567.920	0.465199
568.261	0.462340
568.601	0.459588
568.941	0.456971
569.282	0.454482
569.622	0.452016
569.962	0.449635
570.302	0.447283
570.643	0.444877
570.983	0.442521
571.323	0.440195
571.663	0.437984
572.003	0.435809
572.343	0.433604
572.683	0.431410
573.022	0.429235
573.362	0.427006
573.702	0.424638
574.042	0.422226
574.381	0.419807
574.721	0.417503
575.061	0.415231
575.400	0.413075
575.740	0.410989
576.079	0.408935
576.419	0.406999
576.758	0.405101
577.097	0.403040
577.437	0.400798
577.776	0.398484
578.115	0.396170
578.454	0.393919
578.794	0.391701
579.133	0.389640
579.472	0.387799
579.811	0.386071
580.150	0.384440
580.489	0.382807
580.828	0.381172
581.167	0.379520
581.505	0.377848
581.844	0.376084
582.183	0.374363
582.522	0.372658
582.860	0.371016
583.199	0.369427
583.538	0.367785
583.876	0.366111
584.215	0.364421
584.553	0.362727
584.891	0.361087
585.230	0.359435
585.568	0.357780
585.906	0.356255
586.245	0.354780
586.583	0.353377
586.921	0.352094
587.259	0.350742
587.597	0.349409
587.935	0.348094
588.273	0.346737
588.611	0.345305
588.949	0.343847
589.287	0.342329
589.625	0.340784
589.963	0.339223
590.300	0.337686
590.638	0.336136
590.976	0.334573
591.313	0.333036
591.651	0.331593
591.989	0.330220
592.326	0.328904
592.664	0.327712
593.001	0.326530
593.338	0.325480
593.676	0.324484
594.013	0.323569
594.350	0.322688
594.687	0.321799
595.025	0.320806
595.362	0.319760
595.699	0.318682
596.036	0.317596
596.373	0.316477
596.710	0.315349
597.047	0.314244
597.384	0.313173
597.720	0.312170
598.057	0.311196
598.394	0.310254
598.731	0.309325
599.067	0.308413
599.404	0.307504
599.741	0.306551
600.077	0.305645
600.414	0.304764
600.750	0.303895
601.087	0.302981
601.423	0.302066
601.759	0.301154
602.096	0.300301
602.432	0.299495
602.768	0.298672
603.104	0.297814
603.440	0.296966
603.776	0.296204
604.112	0.295444
604.448	0.294697
604.784	0.293956
605.120	0.293200
605.456	0.292505
605.792	0.291752
606.128	0.290982
606.463	0.290299
606.799	0.289636
607.135	0.288955
607.470	0.288231
607.806	0.287492
608.142	0.286770
608.477	0.286127
608.812	0.285471
609.148	0.284764
609.483	0.284057
609.819	0.283357
610.154	0.282669
610.489	0.282047
610.824	0.281412
611.159	0.280746
611.494	0.280052
611.830	0.279396
612.165	0.278815
612.500	0.278214
612.834	0.277645
613.169	0.277072
613.504	0.276454
613.839	0.275827
614.174	0.275237
614.509	0.274701
614.843	0.274182
615.178	0.273676
615.512	0.273134
615.847	0.272600
616.182	0.272074
616.516	0.271497
616.850	0.270986
617.185	0.270495
617.519	0.269995
617.853	0.269421
618.188	0.268896
618.522	0.268465
618.856	0.267997
619.190	0.267443
619.524	0.266851
619.858	0.266326
620.192	0.265792
620.526	0.265175
620.860	0.264668
621.194	0.264160
621.528	0.263633
621.862	0.263125
622.195	0.262634
622.529	0.262166
622.863	0.261718
623.196	0.261278
623.530	0.260888
623.864	0.260400
624.197	0.259978
624.530	0.259570
624.864	0.259179
625.197	0.258770
625.531	0.258286
625.864	0.257823
626.197	0.257337
626.530	0.256859
626.863	0.256319
627.196	0.255811
627.529	0.255428
627.862	0.254952
628.195	0.254489
628.528	0.254100
628.861	0.253736
629.194	0.253300
629.527	0.252812
629.860	0.252368
630.192	0.251973
630.525	0.251591
630.858	0.251242
631.190	0.250809
631.523	0.250377
631.855	0.249948
632.188	0.249577
632.520	0.249184
632.852	0.248732
633.185	0.248295
633.517	0.247909
633.849	0.247593
634.182	0.247299
634.514	0.246968
634.846	0.246717
635.178	0.246381
635.510	0.246053
635.842	0.245722
636.174	0.245458
636.506	0.245194
636.837	0.244899
637.169	0.244563
637.501	0.244175
637.833	0.243872
638.164	0.243583
638.496	0.243207
638.828	0.242741
639.159	0.242303
639.491	0.241830
639.822	0.241415
640.154	0.241024
640.485	0.240585
640.816	0.240091
641.147	0.239671
641.479	0.239178
641.810	0.238692
642.141	0.238220
642.472	0.237803
642.803	0.237345
643.134	0.236883
643.465	0.236520
643.796	0.236118
644.127	0.235828
644.458	0.235730
644.789	0.235492
645.119	0.235227
645.450	0.234962
645.781	0.234798
646.111	0.234583
646.442	0.234448
646.773	0.234157
647.103	0.233954
647.433	0.233740
647.764	0.233603
648.094	0.233439
648.425	0.233383
648.755	0.233355
649.085	0.233203
649.415	0.232985
649.745	0.232892
650.075	0.232821
650.405	0.232771
650.735	0.233910
651.065	0.242490
651.395	0.245055
651.725	0.228050
652.055	0.184168
652.385	0.142066
652.715	0.111668
653.044	0.091260
653.374	0.076628
653.704	0.075512
654.033	0.088300
654.363	0.096075
654.692	0.100649
655.022	0.103478
655.351	0.105318
655.680	0.106463
656.010	0.107112
656.339	0.107402
656.668	0.107481
656.997	0.107438
657.326	0.107313
657.655	0.106934
657.984	0.104278
658.313	0.096935
658.642	0.087735
658.971	0.088755
659.300	0.099959
659.629	0.118958
659.958	0.146017
660.286	0.187763
660.615	0.226293
660.944	0.227555
661.272	0.227867
661.601	0.228870
661.929	0.229245
662.258	0.228529
662.586	0.227019
662.915	0.225378
663.243	0.224177
663.571	0.223203
663.899	0.222691
664.228	0.222303
664.556	0.222016
664.884	0.221714
665.212	0.221472
665.540	0.221365
665.868	0.221102
666.196	0.220932
666.524	0.220656
666.852	0.220444
667.179	0.220313
667.507	0.220217
667.835	0.220080
668.162	0.219892
668.490	0.219765
668.818	0.219581
669.145	0.219220
669.473	0.218958
669.800	0.218746
670.127	0.218462
670.455	0.218235
670.782	0.218184
671.109	0.217957
671.436	0.217817
671.764	0.217683
672.091	0.217524
672.418	0.217394
672.745	0.217308
673.072	0.217238
673.399	0.217072
673.726	0.216868
674.053	0.216612
674.379	0.216391
674.706	0.216193
675.033	0.215988
675.359	0.215751
675.686	0.215519
676.013	0.215387
676.339	0.215161
676.666	0.214848
676.992	0.214744
677.318	0.214577
677.645	0.214185
677.971	0.213966
678.297	0.213683
678.624	0.213444
678.950	0.213245
679.276	0.212952
679.602	0.212723
679.928	0.212505
680.254	0.212335
680.580	0.212187
680.906	0.212071
681.232	0.211820
681.558	0.211639
681.883	0.211324
682.209	0.211063
682.535	0.210834
682.860	0.210527
683.186	0.210372
683.511	0.210100
683.837	0.209714
684.162	0.209501
684.488	0.209374
684.813	0.209197
685.138	0.208956
685.464	0.208778
685.789	0.208507
686.114	0.208293
686.439	0.208135
686.764	0.207917
687.089	0.207618
687.414	0.207372
687.739	0.207080
688.064	0.206805
688.389	0.206516
688.714	0.206314
689.039	0.206016
689.363	0.205736
689.688	0.205575
690.013	0.205262
690.337	0.205089
690.662	0.205017
690.986	0.204815
691.311	0.204480
691.635	0.204227
691.959	0.204107
692.284	0.203905
692.608	0.203824
692.932	0.203716
693.256	0.203431
693.580	0.203309
693.904	0.203202
694.228	0.202980
694.552	0.202680
694.876	0.202378
695.200	0.202010
695.524	0.201711
695.848	0.201406
696.172	0.201098
696.495	0.200714
696.819	0.200556
697.143	0.200271
697.466	0.199978
697.790	0.199691
698.113	0.199583
698.437	0.199329
698.760	0.199079
699.083	0.198785
699.407	0.198429
699.730	0.198129
700.053	0.197934
700.376	0.197531
700.699	0.197149
701.022	0.196734
701.345	0.196459
701.668	0.196235
701.991	0.196097
702.314	0.195821
702.637	0.195756
702.960	0.195709
703.283	0.195657
703.605	0.195393
703.928	0.195264
704.251	0.195013
704.573	0.194777
704.896	0.194490
705.218	0.194326
705.540	0.194114
705.863	0.193919
706.185	0.193712
706.507	0.193485
706.830	0.193239
707.152	0.193004
707.474	0.192792
707.796	0.192517
708.118	0.192268
708.440	0.192075
708.762	0.191815
709.084	0.191584
709.406	0.191297
709.728	0.191046
710.049	0.190755
710.371	0.190442
710.693	0.190177
711.014	0.189820
711.336	0.189513
711.658	0.189238
711.979	0.188889
712.301	0.188428
712.622	0.188096
712.943	0.187696
713.265	0.187333
713.586	0.187022
713.907	0.186818
714.228	0.186670
714.549	0.186584
714.870	0.186459
715.191	0.186263
715.512	0.185975
715.833	0.185717
716.154	0.185394
716.475	0.185030
716.796	0.184703
717.117	0.184348
717.437	0.183963
717.758	0.183715
718.078	0.183406
718.399	0.183063
718.719	0.182813
719.040	0.182656
719.360	0.182445
719.681	0.182316
720.001	0.182229
720.321	0.182063
720.642	0.181826
720.962	0.181492
721.282	0.181294
721.602	0.181036
721.922	0.180772
722.242	0.180515
722.562	0.180188
722.882	0.179867
723.202	0.179548
723.521	0.179268
723.841	0.179067
724.161	0.178880
724.481	0.178621
724.800	0.178443
725.120	0.178295
725.439	0.178089
725.759	0.177880
726.078	0.177728
726.398	0.177610
726.717	0.177512
727.036	0.177346
727.355	0.177152
727.675	0.177009
727.994	0.176828
728.313	0.176682
728.632	0.176479
728.951	0.176288
729.270	0.176095
729.589	0.175962
729.908	0.175782
730.226	0.175612
730.545	0.175374
730.864	0.175100
731.182	0.174842
731.501	0.174600
731.820	0.174341
732.138	0.174140
732.457	0.173912
732.775	0.173689
733.093	0.173411
733.412	0.173070
733.730	0.172818
734.048	0.172596
734.367	0.172298
734.685	0.171965
735.003	0.171652
735.321	0.171424
735.639	0.171185
735.957	0.171079
736.275	0.170815
736.593	0.170615
736.910	0.170267
737.228	0.170055
737.546	0.169779
737.863	0.169593
738.181	0.169316
738.499	0.169087
738.816	0.168864
739.134	0.168627
739.451	0.168375
739.768	0.168174
740.086	0.167929
740.403	0.167622
740.720	0.167325
741.038	0.167035
741.355	0.166807
741.672	0.166457
741.989	0.166134
742.306	0.165858
742.623	0.165469
742.940	0.165124
743.257	0.164730
743.573	0.164559
743.890	0.164188
744.207	0.163962
744.523	0.163778
744.840	0.163532
745.157	0.163304
745.473	0.163051
745.790	0.163027
746.106	0.162800
746.422	0.162602
746.739	0.162508
747.055	0.162310
747.371	0.162095
747.687	0.161964
748.004	0.161767
748.320	0.161658
748.636	0.161517
748.952	0.161357
749.268	0.161355
749.584	0.161357
749.899	0.161267
750.215	0.161173
750.531	0.161206
750.847	0.161164
751.162	0.161036
751.478	0.161002
751.793	0.160878
752.109	0.160817
752.424	0.160586
752.740	0.160508
753.055	0.160521
753.370	0.160485
753.686	0.160561
754.001	0.160582
754.316	0.160560
754.631	0.160600
754.946	0.160603
755.261	0.160465
755.576	0.160324
755.891	0.160109
756.206	0.159947
756.521	0.159870
756.836	0.159775
757.150	0.159572
757.465	0.159342
757.780	0.159164
758.094	0.159032
758.409	0.158906
758.723	0.158747
759.038	0.158634
759.352	0.158478
759.667	0.158320
759.981	0.158223
760.295	0.158057
760.609	0.157938
760.923	0.157795
761.238	0.157528
761.552	0.157269
761.866	0.157050
762.180	0.156886
762.493	0.156625
762.807	0.156307
763.121	0.156014
763.435	0.155735
763.749	0.155546
764.062	0.155463
764.376	0.155403
764.689	0.155249
765.003	0.155221
765.316	0.155223
765.630	0.155227
765.943	0.155139
766.257	0.154957
766.570	0.154694
766.883	0.154383
767.196	0.154072
767.509	0.153702
767.822	0.153395
768.135	0.153067
768.448	0.152832
768.761	0.152557
769.074	0.152354
769.387	0.152248
769.700	0.152099
770.013	0.151920
770.325	0.151695
770.638	0.151486
770.950	0.151161
771.263	0.150918
771.575	0.150553
771.888	0.150088
772.200	0.149659
772.513	0.149258
772.825	0.148891
773.137	0.148515
773.449	0.148210
773.761	0.147958
774.074	0.147790
774.386	0.147703
774.698	0.147714
775.010	0.147623
775.321	0.147566
775.633	0.147506
775.945	0.147433
776.257	0.147476
776.568	0.147540
776.880	0.147663
777.192	0.147580
777.503	0.147520
777.815	0.147542
778.126	0.147596
778.438	0.147647
778.749	0.147614
779.060	0.147600
779.372	0.147538
779.683	0.147487
779.994	0.147360
780.305	0.147038
780.616	0.146949
780.927	0.146827
781.238	0.146515
781.549	0.146348
781.860	0.146154
782.171	0.146067
782.481	0.146017
782.792	0.145756
783.103	0.145565
783.413	0.145406
783.724	0.145231
784.034	0.145148
784.345	0.145008
784.655	0.144787
784.966	0.144626
785.276	0.144435
785.586	0.144237
785.896	0.144093
786.207	0.143964
786.517	0.143882
786.827	0.143925
787.137	0.143800
787.447	0.143610
787.757	0.143653
788.066	0.143560
788.376	0.143564
788.686	0.143496
788.996	0.143489
789.305	0.143557
789.615	0.143649
789.925	0.143734
790.234	0.143795
790.544	0.143892
790.853	0.143850
791.162	0.143869
791.472	0.143804
791.781	0.143666
792.090	0.143493
792.399	0.143280
792.708	0.143003
793.017	0.142781
793.326	0.142645
793.635	0.142570
793.944	0.142511
794.253	0.142400
794.562	0.142331
794.871	0.142254
795.179	0.142200
795.488	0.142015
795.797	0.141844
796.105	0.141629
796.414	0.141328
796.722	0.141070
797.031	0.140692
797.339	0.140301
797.647	0.139860
797.956	0.139465
798.264	0.139249
798.572	0.139161
798.880	0.139206
799.188	0.139119
799.496	0.139175
799.804	0.139070
800.112	0.138859
800.420	0.138831
800.728	0.138741
801.035	0.138621
801.343	0.138355
801.651	0.138136
801.958	0.138085
802.266	0.138018
802.573	0.137885
802.881	0.138010
803.188	0.137910
803.496	0.137815
803.803	0.137809
804.110	0.137702
804.417	0.137693
804.724	0.137753
805.032	0.137730
805.339	0.137491
805.646	0.137378
805.953	0.137196
806.259	0.137126
806.566	0.136971
806.873	0.136796
807.180	0.136754
807.486	0.136772
807.793	0.136679
808.100	0.136480
808.406	0.136100
808.713	0.135914
809.019	0.135600
809.326	0.135139
809.632	0.135023
809.938	0.134797
810.244	0.134518
810.551	0.134384
810.857	0.133970
811.163	0.133548
811.469	0.133158
811.775	0.132916
812.081	0.132835
812.387	0.132932
812.692	0.132890
812.998	0.132982
813.304	0.132943
813.610	0.132922
813.915	0.132653
814.221	0.132526
814.526	0.132436
814.832	0.132403
815.137	0.132150
815.443	0.131749
815.748	0.131654
816.053	0.131426
816.358	0.131364
816.664	0.131368
816.969	0.131259
817.274	0.131375
817.579	0.131436
817.884	0.131544
818.189	0.131519
818.493	0.131281
818.798	0.130983
819.103	0.130580
819.408	0.130035
819.712	0.129728
820.017	0.129371
820.321	0.129084
820.626	0.129087
820.930	0.128966
821.235	0.128988
821.539	0.129109
821.843	0.129291
822.148	0.129086
822.452	0.128961
822.756	0.128943
823.060	0.128637
823.364	0.128564
823.668	0.128249
823.972	0.127987
824.276	0.127789
824.580	0.127883
824.883	0.128105
825.187	0.127943
825.491	0.127972
825.795	0.128255
826.098	0.128257
826.402	0.127920
826.705	0.127981
827.008	0.127585
827.312	0.127319
827.615	0.126988
827.918	0.126541
828.222	0.126091
828.525	0.125955
828.828	0.126007
829.131	0.125714
829.434	0.125855
829.737	0.125577
830.040	0.125536
830.343	0.125317
830.645	0.125091
830.948	0.124570
831.251	0.124134
831.553	0.123974
831.856	0.123714
832.159	0.123301
832.461	0.122942
832.764	0.122800
833.066	0.122337
833.368	0.122299
833.671	0.122025
833.973	0.121925
834.275	0.121644
834.577	0.121570
834.879	0.121351
835.181	0.120995
835.483	0.120676
835.785	0.119906
836.087	0.119604
836.389	0.119348
836.690	0.118840
836.992	0.118227
837.294	0.117509
837.595	0.116666
837.897	0.115980
838.198	0.115569
838.500	0.114758
838.801	0.114628
839.103	0.114333
839.404	0.114515
839.705	0.114372
840.006	0.114542
840.307	0.114595
840.608	0.114420
840.910	0.114746
841.210	0.114623
841.511	0.114153
841.812	0.113702
842.113	0.113466
842.414	0.113224
842.715	0.112668
843.015	0.112217
843.316	0.112091
843.616	0.111874
843.917	0.111839
844.217	0.111808
844.518	0.111862
844.818	0.112589
845.118	0.112093
845.419	0.112041
845.719	0.111443
846.019	0.110748
846.319	0.110692
846.619	0.110348
846.919	0.111106
847.219	0.110973
847.519	0.110444
847.819	0.111074
848.118	0.111390
848.418	0.111956
848.718	0.111899
849.017	0.112430
849.317	0.113092
849.616	0.113354
849.916	0.114561
850.215	0.115562
850.515	0.116151
850.814	0.115715
851.113	0.115272
851.412	0.115189
851.712	0.115345
852.011	0.115209
852.310	0.115439
852.609	0.115286
852.908	0.115037
853.206	0.114671
853.505	0.114823
853.804	0.114926
854.103	0.114657
854.401	0.114216
854.700	0.114003
854.999	0.113576
855.297	0.113137
855.595	0.112907
855.894	0.112845
856.192	0.112176
856.491	0.111372
856.789	0.110702
857.087	0.110205
857.385	0.109968
857.683	0.109928
857.981	0.109707
858.279	0.109640
858.577	0.109230
858.875	0.109148
859.173	0.108837
859.471	0.108699
859.768	0.108360
860.066	0.108188
860.363	0.107102
860.661	0.106922
860.959	0.106568
861.256	0.106528
861.553	0.106213
861.851	0.104899
862.148	0.104203
862.445	0.103386
862.742	0.103237
863.039	0.102232
863.337	0.102942
863.634	0.102929
863.931	0.102667
864.227	0.101882
864.524	0.101123
864.821	0.100841
865.118	0.100272
865.415	0.100503
865.711	0.100076
866.008	0.099590
866.304	0.099432
866.601	0.100480
866.897	0.100732
867.194	0.100674
867.490	0.101205
867.786	0.101615
868.082	0.102878
868.379	0.102331
868.675	0.102485
868.971	0.101742
869.267	0.101981
869.563	0.101695
869.859	0.100850
870.154	0.100575
870.450	0.100155
870.746	0.100573
871.042	0.100604
871.337	0.100450
871.633	0.100348
871.928	0.100993
872.224	0.100025
872.519	0.099267
872.815	0.098409
873.110	0.098199
873.405	0.097841
873.700	0.096929
873.995	0.096433
874.291	0.096026
874.586	0.096835
874.881	0.097015
875.175	0.097439
875.470	0.097830
875.765	0.097033
876.060	0.097307
876.355	0.097295
876.649	0.097156
876.944	0.097009
877.238	0.096865
877.533	0.096996
877.827	0.096795
878.122	0.095985
878.416	0.096474
878.710	0.096708
879.005	0.096376
879.299	0.095778
879.593	0.095363
879.887	0.095185
880.181	0.094814
880.475	0.094842
880.769	0.094412
881.063	0.094478
881.356	0.094397
881.650	0.093764
881.944	0.094087
882.238	0.077924
882.531	0.083767
882.825	0.082716
883.118	0.083350
883.412	0.099737
883.705	0.099011
883.998	0.102246
884.291	0.100807
884.585	0.087687
884.878	0.097024
>>>>>>>>>> END of Data <<<<<<<<<<
>>>>>>>>>> Raw Data Start <<<<<<<<
190.664	-213
191.040	1
191.415	1
191.791	3
192.166	3
192.542	10
192.917	4
193.293	8
193.668	2
194.044	2
194.419	-5
194.794	5
195.170	5
195.545	6
195.920	6
196.296	6
196.671	6
197.046	6
197.421	7
197.796	7
198.171	7
198.546	7
198.922	8
199.297	8
199.672	8
200.047	8
200.422	8
200.796	8
201.171	9
201.546	9
201.921	8
202.296	9
202.671	9
203.045	9
203.420	9
203.795	9
204.170	10
204.544	10
204.919	9
205.294	9
205.668	9
206.043	9
206.417	9
206.792	9
207.166	9
207.541	9
207.915	9
208.289	9
208.664	8
209.038	8
209.412	9
209.787	8
210.161	8
210.535	8
210.909	8
211.284	8
211.658	8
212.032	8
212.406	8
212.780	8
213.154	8
213.528	8
213.902	8
214.276	8
214.650	8
215.024	8
215.398	8
215.772	8
216.145	8
216.519	8
216.893	8
217.267	8
217.640	9
218.014	9
218.388	9
218.761	9
219.135	10
219.508	10
219.882	10
220.256	10
220.629	10
221.003	9
221.376	9
221.749	9
222.123	9
222.496	9
222.869	9
223.243	9
223.616	9
223.989	9
224.362	9
224.736	10
225.109	9
225.482	9
225.855	9
226.228	9
226.601	9
226.974	9
227.347	9
227.720	9
228.093	9
228.466	9
228.839	9
229.212	9
229.585	9
229.957	9
230.330	9
230.703	9
231.076	9
231.448	9
231.821	9
232.194	9
232.566	9
232.939	9
233.311	8
233.684	9
234.056	9
234.429	9
234.801	8
235.174	9
235.546	9
235.918	9
236.291	9
236.663	9
237.035	9
237.408	10
237.780	10
238.152	9
238.524	10
238.896	9
239.268	9
239.641	10
240.013	10
240.385	10
240.757	10
241.129	11
241.500	10
241.872	11
242.244	11
242.616	11
242.988	11
243.360	11
243.731	11
244.103	11
244.475	11
244.847	11
245.218	10
245.590	10
245.961	11
246.333	10
246.705	10
247.076	10
247.448	10
247.819	10
248.190	10
248.562	10
248.933	10
249.305	10
249.676	10
250.047	10
250.418	10
250.790	10
251.161	10
251.532	10
251.903	10
252.274	9
252.645	10
253.016	9
253.387	10
253.758	10
254.129	10
254.500	10
254.871	11
255.242	11
255.613	11
255.984	11
256.355	11
256.725	11
257.096	11
257.467	11
257.838	11
258.208	11
258.579	11
258.949	11
259.320	11
259.690	11
260.061	12
260.431	12
260.802	12
261.172	12
261.543	12
261.913	12
262.283	12
262.654	12
263.024	12
263.394	11
263.764	11
264.135	12
264.505	12
264.875	12
265.245	11
265.615	11
265.985	11
266.355	11
266.725	11
267.095	11
267.465	11
267.835	11
268.205	11
268.575	11
268.944	11
269.314	11
269.684	11
270.054	11
270.423	10
270.793	10
271.163	11
271.532	11
271.902	11
272.271	11
272.641	11
273.010	11
273.380	11
273.749	12
274.119	12
274.488	12
274.857	11
275.227	12
275.596	12
275.965	12
276.335	12
276.704	12
277.073	12
277.442	12
277.811	13
278.180	13
278.549	12
278.918	13
279.287	13
279.656	13
280.025	13
280.394	13
280.763	13
281.132	13
281.501	12
281.869	12
282.238	12
282.607	12
282.976	12
283.344	12
283.713	12
284.081	11
284.450	11
284.819	11
285.187	11
285.556	11
285.924	12
286.292	12
286.661	11
287.029	11
287.398	12
287.766	12
288.134	12
288.502	12
288.871	12
289.239	12
289.607	12
289.975	12
290.343	12
290.711	12
291.079	12
291.447	12
291.815	12
292.183	12
292.551	12
292.919	12
293.287	12
293.655	12
294.022	12
294.390	12
294.758	12
295.126	11
295.493	11
295.861	11
296.229	11
296.596	11
296.964	11
297.331	11
297.699	11
298.066	11
298.434	11
298.801	11
299.168	11
299.536	11
299.903	11
300.270	11
300.638	11
301.005	11
301.372	11
301.739	11
302.106	11
302.473	11
302.840	12
303.207	12
303.574	12
303.941	12
304.308	12
304.675	12
305.042	12
305.409	12
305.776	12
306.143	12
306.509	13
306.876	13
307.243	13
307.610	13
307.976	13
308.343	13
308.709	13
309.076	13
309.442	13
309.809	13
310.175	13
310.542	13
310.908	13
311.275	13
311.641	13
312.007	13
312.373	13
312.740	14
313.106	14
313.472	13
313.838	13
314.204	13
314.570	13
314.936	13
315.302	14
315.668	14
316.034	14
316.400	14
316.766	14
317.132	14
317.498	13
317.864	14
318.230	14
318.595	14
318.961	15
319.327	15
319.692	15
320.058	16
320.424	16
320.789	16
321.155	17
321.520	17
321.886	17
322.251	18
322.616	18
322.982	19
323.347	20
323.712	20
324.078	21
324.443	22
324.808	23
325.173	23
325.539	24
325.904	25
326.269	25
326.634	26
326.999	27
327.364	27
327.729	28
328.094	29
328.459	29
328.823	30
329.188	31
329.553	32
329.918	32
330.283	33
330.647	33
331.012	34
331.377	35
331.741	36
332.106	36
332.470	36
332.835	37
333.199	38
333.564	38
333.928	39
334.293	40
334.657	40
335.021	41
335.386	42
335.750	42
336.114	43
336.478	44
336.843	45
337.207	46
337.571	47
337.935	48
338.299	49
338.663	49
339.027	50
339.391	51
339.755	52
340.119	53
340.483	54
340.846	54
341.210	55
341.574	56
341.938	57
342.301	57
342.665	58
343.029	59
343.392	59
343.756	60
344.119	61
344.483	61
344.846	62
345.210	63
345.573	64
345.937	65
346.300	65
346.663	66
347.027	67
347.390	68
347.753	68
348.116	69
348.479	70
348.843	71
349.206	72
349.569	72
349.932	73
350.295	74
350.658	74
351.021	75
351.383	75
351.746	76
352.109	77
352.472	77
352.835	77
353.197	78
353.560	78
353.923	78
354.285	79
354.648	79
355.011	80
355.373	80
355.736	80
356.098	81
356.461	81
356.823	81
357.185	82
357.548	82
357.910	82
358.272	83
358.635	84
358.997	84
359.359	84
359.721	85
360.083	85
360.445	85
360.807	86
361.169	86
361.531	86
361.893	86
362.255	87
362.617	87
362.979	87
363.341	88
363.703	88
364.064	88
364.426	89
364.788	89
365.149	89
365.511	89
365.873	89
366.234	89
366.596	89
366.957	90
367.319	90
367.680	90
368.042	90
368.403	90
368.764	90
369.126	90
369.487	91
369.848	91
370.209	91
370.570	91
370.931	91
371.293	91
371.654	91
372.015	91
372.376	90
372.737	91
373.098	91
373.458	91
373.819	91
374.180	91
374.541	91
374.902	91
375.263	91
375.623	92
375.984	92
376.345	93
376.705	93
377.066	93
377.426	93
377.787	93
378.147	93
378.508	94
378.868	94
379.228	94
379.589	95
379.949	95
380.309	95
380.670	95
381.030	95
381.390	95
381.750	96
382.110	96
382.470	96
382.830	96
383.190	96
383.550	96
383.910	95
384.270	95
384.630	96
384.990	96
385.350	96
385.709	96
386.069	96
386.429	96
386.788	96
387.148	96
387.508	97
387.867	97
388.227	97
388.586	97
388.946	98
389.305	98
389.665	98
390.024	99
390.383	99
390.743	100
391.102	101
391.461	102
391.820	102
392.179	102
392.539	102
392.898	102
393.257	103
393.616	103
393.975	103
394.334	104
394.693	104
395.051	105
395.410	106
395.769	106
396.128	106
396.487	106
396.845	107
397.204	107
397.563	107
397.921	107
398.280	107
398.638	108
398.997	108
399.355	108
399.714	108
400.072	109
400.431	109
400.789	110
401.147	110
401.506	111
401.864	111
402.222	111
402.580	112
402.938	112
403.297	112
403.655	112
404.013	113
404.371	113
404.729	113
405.087	113
405.444	114
405.802	114
406.160	114
406.518	115
406.876	115
407.233	115
407.591	115
407.949	116
408.306	116
408.664	116
409.022	116
409.379	117
409.737	117
410.094	117
410.451	118
410.809	118
411.166	119
411.523	119
411.881	119
412.238	120
412.595	120
412.952	121
413.310	121
413.667	121
414.024	121
414.381	122
414.738	122
415.095	123
415.452	123
415.809	124
416.165	124
416.522	125
416.879	126
417.236	127
417.593	128
417.949	129
418.306	131
418.663	132
419.019	134
419.376	136
419.732	138
420.089	139
420.445	141
420.802	142
421.158	144
421.514	146
421.871	147
422.227	148
422.583	150
422.939	151
423.295	152
423.652	153
424.008	154
424.364	155
424.720	155
425.076	156
425.432	157
425.788	157
426.143	158
426.499	159
426.855	160
427.211	162
427.567	163
427.922	164
428.278	165
428.634	166
428.989	167
429.345	167
429.700	168
430.056	169
430.411	170
430.767	172
431.122	173
431.478	175
431.833	176
432.188	178
432.543	179
432.899	180
433.254	181
433.609	182
433.964	182
434.319	183
434.674	183
435.029	184
435.384	185
435.739	186
436.094	188
436.449	190
436.804	192
437.158	194
437.513	197
437.868	200
438.223	203
438.577	206
438.932	209
439.287	213
439.641	217
439.996	220
440.350	224
440.704	228
441.059	231
441.413	235
441.768	239
442.122	243
442.476	246
442.830	250
443.185	253
443.539	257
443.893	260
444.247	264
444.601	267
444.955	269
445.309	271
445.663	273
446.017	275
446.371	277
446.724	278
447.078	279
447.432	280
447.786	281
448.139	282
448.493	283
448.847	284
449.200	284
449.554	285
449.907	286
450.261	286
450.614	287
450.968	287
451.321	288
451.674	289
452.027	289
452.381	290
452.734	292
453.087	293
453.440	294
453.793	296
454.146	298
454.499	301
454.852	304
455.205	307
455.558	311
455.911	314
456.264	318
456.617	322
456.970	325
457.322	328
457.675	331
458.028	334
458.380	336
458.733	339
459.086	341
459.438	344
459.791	347
460.143	350
460.496	355
460.848	359
461.200	364
461.553	369
461.905	374
462.257	379
462.609	383
462.961	387
463.314	391
463.666	394
464.018	397
464.370	401
464.722	404
465.074	408
465.426	411
465.777	414
466.129	417
466.481	420
466.833	421
467.184	422
467.536	423
467.888	423
468.239	423
468.591	423
468.943	424
469.294	425
469.646	427
469.997	429
470.348	432
470.700	436
471.051	441
471.402	447
471.754	453
472.105	460
472.456	467
472.807	475
473.158	484
473.509	493
473.860	504
474.211	514
474.562	526
474.913	537
475.264	550
475.615	562
475.966	574
476.316	586
476.667	598
477.018	610
477.368	623
477.719	636
478.070	648
478.420	659
478.771	671
479.121	682
479.472	694
479.822	705
480.172	718
480.523	733
480.873	752
481.223	783
481.573	829
481.924	889
482.274	957
482.624	1028
482.974	1100
483.324	1165
483.674	1215
484.024	1249
484.374	1273
484.724	1288
485.073	1299
485.423	1309
485.773	1318
486.123	1327
486.472	1336
486.822	1344
487.172	1351
487.521	1357
487.871	1361
488.220	1360
488.570	1346
488.919	1317
489.268	1274
489.618	1223
489.967	1168
490.316	1113
490.666	1063
491.015	1028
491.364	1007
491.713	997
492.062	995
492.411	997
492.760	1001
493.109	1006
493.458	1011
493.807	1015
494.156	1020
494.505	1024
494.853	1028
495.202	1033
495.551	1040
495.900	1047
496.248	1055
496.597	1062
496.945	1069
497.294	1076
497.642	1084
497.991	1092
498.339	1102
498.688	1112
499.036	1122
499.384	1132
499.732	1141
500.081	1147
500.429	1154
500.777	1160
501.125	1166
501.473	1172
501.821	1178
502.169	1184
502.517	1189
502.865	1193
503.213	1196
503.561	1198
503.908	1200
504.256	1202
504.604	1203
504.952	1203
505.299	1203
505.647	1202
505.994	1199
506.342	1197
506.689	1194
507.037	1192
507.384	1192
507.732	1192
508.079	1191
508.426	1192
508.774	1192
509.121	1191
509.468	1191
509.815	1190
510.162	1189
510.509	1188
510.856	1187
511.203	1185
511.550	1184
511.897	1183
512.244	1181
512.591	1180
512.938	1179
513.284	1178
513.631	1176
513.978	1175
514.324	1173
514.671	1170
515.018	1167
515.364	1165
515.711	1163
516.057	1160
516.403	1159
516.750	1156
517.096	1153
517.443	1150
517.789	1146
518.135	1143
518.481	1140
518.827	1138
519.173	1135
519.519	1132
519.865	1130
520.211	1128
520.557	1126
520.903	1125
521.249	1124
521.595	1123
521.941	1122
522.287	1121
522.632	1120
522.978	1119
523.324	1119
523.669	1120
524.015	1121
524.360	1124
524.706	1129
525.051	1134
525.397	1141
525.742	1148
526.087	1155
526.433	1162
526.778	1169
527.123	1174
527.468	1178
527.813	1183
528.158	1187
528.504	1192
528.849	1199
529.193	1208
529.538	1218
529.883	1232
530.228	1246
530.573	1262
530.918	1279
531.263	1297
531.607	1313
531.952	1327
532.296	1340
532.641	1350
532.986	1359
533.330	1367
533.675	1375
534.019	1385
534.363	1399
534.708	1414
535.052	1432
535.396	1451
535.741	1470
536.085	1487
536.429	1502
536.773	1516
537.117	1526
537.461	1536
537.805	1545
538.149	1555
538.493	1565
538.837	1576
539.181	1588
539.524	1604
539.868	1622
540.212	1642
540.556	1663
540.899	1686
541.243	1706
541.586	1723
541.930	1738
542.273	1748
542.617	1757
542.960	1766
543.304	1778
543.647	1792
543.990	1811
544.333	1832
544.677	1854
545.020	1875
545.363	1893
545.706	1907
546.049	1919
546.392	1926
546.735	1930
547.078	1933
547.421	1936
547.764	1940
548.106	1944
548.449	1952
548.792	1963
549.135	1978
549.477	1996
549.820	2014
550.162	2030
550.505	2044
550.847	2054
551.190	2061
551.532	2067
551.875	2074
552.217	2082
552.559	2091
552.901	2103
553.244	2118
553.586	2134
553.928	2152
554.270	2167
554.612	2181
554.954	2192
555.296	2201
555.638	2210
555.980	2220
556.322	2232
556.663	2248
557.005	2269
557.347	2296
557.689	2324
558.030	2353
558.372	2380
558.713	2405
559.055	2428
559.396	2450
559.738	2475
560.079	2500
560.421	2529
560.762	2563
561.103	2599
561.444	2640
561.786	2682
562.127	2727
562.468	2775
562.809	2827
563.150	2885
563.491	2948
563.832	3016
564.173	3094
564.514	3184
564.855	3291
565.195	3421
565.536	3579
565.877	3761
566.218	3969
566.558	4204
566.899	4463
567.239	4744
567.580	5040
567.920	5345
568.261	5652
568.601	5967
568.941	6294
569.282	6630
569.622	6979
569.962	7341
570.302	7728
570.643	8130
570.983	8537
571.323	8932
571.663	9313
572.003	9676
572.343	10017
572.683	10336
573.022	10658
573.362	10996
573.702	11349
574.042	11704
574.381	12047
574.721	12374
575.061	12688
575.400	12976
575.740	13231
576.079	13459
576.419	13679
576.758	13925
577.097	14219
577.437	14543
577.776	14890
578.115	15255
578.454	15626
578.794	15973
579.133	16248
579.472	16440
579.811	16557
580.150	16602
580.489	16592
580.828	16555
581.167	16519
581.505	16497
581.844	16486
582.183	16472
582.522	16471
582.860	16478
583.199	16486
583.538	16476
583.876	16417
584.215	16290
584.553	16086
584.891	15810
585.230	15465
585.568	15081
585.906	14683
586.245	14323
586.583	14012
586.921	13755
587.259	13528
587.597	13301
587.935	13063
588.273	12817
588.611	12585
588.949	12379
589.287	12207
589.625	12073
589.963	11969
590.300	11888
590.638	11817
590.976	11738
591.313	11642
591.651	11547
591.989	11465
592.326	11399
592.664	11342
593.001	11296
593.338	11269
593.676	11257
594.013	11264
594.350	11307
594.687	11380
595.025	11466
595.362	11545
595.699	11604
596.036	11643
596.373	11658
596.710	11642
597.047	11605
597.384	11557
597.720	11501
598.057	11456
598.394	11423
598.731	11404
599.067	11405
599.404	11425
599.741	11474
600.077	11542
600.414	11618
600.750	11700
601.087	11766
601.423	11801
601.759	11809
602.096	11793
602.432	11762
602.768	11714
603.104	11646
603.440	11560
603.776	11467
604.112	11366
604.448	11264
604.784	11156
605.120	11041
605.456	10929
605.792	10813
606.128	10691
606.463	10564
606.799	10435
607.135	10318
607.470	10203
607.806	10089
608.142	9977
608.477	9869
608.812	9765
609.148	9662
609.483	9553
609.819	9441
610.154	9334
610.489	9234
610.824	9147
611.159	9075
611.494	9002
611.830	8939
612.165	8877
612.500	8808
612.834	8726
613.169	8633
613.504	8530
613.839	8416
614.174	8284
614.509	8150
614.843	8017
615.178	7890
615.512	7766
615.847	7644
616.182	7523
616.516	7402
616.850	7272
617.185	7138
617.519	7001
617.853	6854
618.188	6700
618.522	6557
618.856	6436
619.190	6332
619.524	6241
619.858	6168
620.192	6111
620.526	6063
620.860	6014
621.194	5967
621.528	5920
621.862	5874
622.195	5818
622.529	5757
622.863	5693
623.196	5630
623.530	5565
623.864	5501
624.197	5436
624.530	5373
624.864	5316
625.197	5257
625.531	5191
625.864	5111
626.197	5025
626.530	4932
626.863	4827
627.196	4712
627.529	4595
627.862	4480
628.195	4366
628.528	4252
628.861	4143
629.194	4045
629.527	3954
629.860	3862
630.192	3772
630.525	3687
630.858	3607
631.190	3532
631.523	3460
631.855	3391
632.188	3332
632.520	3277
632.852	3225
633.185	3172
633.517	3120
633.849	3074
634.182	3031
634.514	2991
634.846	2955
635.178	2923
635.510	2895
635.842	2870
636.174	2845
636.506	2820
636.837	2795
637.169	2771
637.501	2746
637.833	2718
638.164	2686
638.496	2651
638.828	2612
639.159	2568
639.491	2520
639.822	2469
640.154	2418
640.485	2368
640.816	2318
641.147	2268
641.479	2220
641.810	2175
642.141	2130
642.472	2086
642.803	2042
643.134	2001
643.465	1965
643.796	1937
644.127	1916
644.458	1905
644.789	1904
645.119	1915
645.450	1933
645.781	1954
646.111	1976
646.442	1994
646.773	2009
647.103	2020
647.433	2031
647.764	2041
648.094	2054
648.425	2070
648.755	2090
649.085	2114
649.415	2139
649.745	2164
650.075	2191
650.405	2220
650.735	2270
651.065	2620
651.395	3887
651.725	6141
652.055	9107
652.385	12578
652.715	16217
653.044	19857
653.374	23501
653.704	26540
654.033	28667
654.363	30125
654.692	31091
655.022	31714
655.351	32114
655.680	32359
656.010	32490
656.339	32548
656.668	32563
656.997	32555
657.326	32530
657.655	32475
657.984	32111
658.313	30822
658.642	28540
658.971	25536
659.300	22023
659.629	18341
659.958	14660
660.286	10979
660.615	7909
660.944	5756
661.272	4277
661.601	3291
661.929	2647
662.258	2221
662.586	1947
662.915	1781
663.243	1684
663.571	1629
663.899	1596
664.228	1574
664.556	1560
664.884	1550
665.212	1543
665.540	1538
665.868	1536
666.196	1535
666.524	1534
666.852	1536
667.179	1542
667.507	1553
667.835	1571
668.162	1594
668.490	1623
668.818	1657
669.145	1693
669.473	1729
669.800	1763
670.127	1793
670.455	1818
670.782	1838
671.109	1857
671.436	1873
671.764	1886
672.091	1896
672.418	1906
672.745	1913
673.072	1920
673.399	1929
673.726	1939
674.053	1947
674.379	1950
674.706	1950
675.033	1949
675.359	1947
675.686	1943
676.013	1941
676.339	1942
676.666	1948
676.992	1963
677.318	1983
677.645	2007
677.971	2029
678.297	2049
678.624	2069
678.950	2087
679.276	2105
679.602	2121
679.928	2139
680.254	2160
680.580	2186
680.906	2221
681.232	2264
681.558	2309
681.883	2355
682.209	2398
682.535	2437
682.860	2474
683.186	2504
683.511	2528
683.837	2544
684.162	2557
684.488	2566
684.813	2576
685.138	2586
685.464	2593
685.789	2601
686.114	2608
686.439	2617
686.764	2628
687.089	2636
687.414	2638
687.739	2631
688.064	2617
688.389	2598
688.714	2574
689.039	2549
689.363	2522
689.688	2492
690.013	2464
690.337	2438
690.662	2417
690.986	2399
691.311	2381
691.635	2362
691.959	2344
692.284	2332
692.608	2328
692.932	2332
693.256	2341
693.580	2351
693.904	2364
694.228	2380
694.552	2396
694.876	2404
695.200	2403
695.524	2394
695.848	2380
696.172	2361
696.495	2341
696.819	2320
697.143	2298
697.466	2276
697.790	2257
698.113	2243
698.437	2236
698.760	2235
699.083	2235
699.407	2230
699.730	2220
700.053	2202
700.376	2178
700.699	2143
701.022	2100
701.345	2050
701.668	2004
701.991	1965
702.314	1937
702.637	1923
702.960	1925
703.283	1943
703.605	1978
703.928	2025
704.251	2080
704.573	2135
704.896	2184
705.218	2224
705.540	2256
705.863	2281
706.185	2301
706.507	2318
706.830	2333
707.152	2349
707.474	2367
707.796	2387
708.118	2409
708.440	2430
708.762	2449
709.084	2465
709.406	2474
709.728	2476
710.049	2472
710.371	2462
710.693	2446
711.014	2428
711.336	2410
711.658	2394
711.979	2381
712.301	2369
712.622	2356
712.943	2341
713.265	2322
713.586	2303
713.907	2284
714.228	2267
714.549	2253
714.870	2244
715.191	2241
715.512	2241
715.833	2239
716.154	2234
716.475	2226
716.796	2212
717.117	2192
717.437	2168
717.758	2140
718.078	2111
718.399	2084
718.719	2059
719.040	2037
719.360	2020
719.681	2007
720.001	1999
720.321	1995
720.642	1993
720.962	1995
721.282	2000
721.602	2007
721.922	2015
722.242	2024
722.562	2038
722.882	2055
723.202	2070
723.521	2084
723.841	2099
724.161	2114
724.481	2129
724.800	2144
725.120	2163
725.439	2186
725.759	2213
726.078	2243
726.398	2279
726.717	2323
727.036	2374
727.355	2427
727.675	2480
727.994	2530
728.313	2579
728.632	2621
728.951	2656
729.270	2686
729.589	2713
729.908	2746
730.226	2784
730.545	2826
730.864	2871
731.182	2920
731.501	2970
731.820	3018
732.138	3060
732.457	3096
732.775	3130
733.093	3158
733.412	3175
733.730	3180
734.048	3173
734.367	3159
734.685	3140
735.003	3118
735.321	3098
735.639	3081
735.957	3068
736.275	3057
736.593	3041
736.910	3017
737.228	2981
737.546	2937
737.863	2883
738.181	2824
738.499	2761
738.816	2700
739.134	2639
739.451	2578
739.768	2516
740.086	2457
740.403	2401
740.720	2350
741.038	2303
741.355	2256
741.672	2210
741.989	2163
742.306	2114
742.623	2064
742.940	2015
743.257	1968
743.573	1927
743.890	1894
744.207	1869
744.523	1851
744.840	1840
745.157	1832
745.473	1831
745.790	1836
746.106	1850
746.422	1871
746.739	1897
747.055	1930
747.371	1966
747.687	2005
748.004	2042
748.320	2075
748.636	2104
748.952	2133
749.268	2162
749.584	2190
749.899	2215
750.215	2241
750.531	2270
750.847	2303
751.162	2336
751.478	2368
751.793	2401
752.109	2436
752.424	2475
752.740	2514
753.055	2557
753.370	2610
753.686	2671
754.001	2737
754.316	2807
754.631	2881
754.946	2959
755.261	3042
755.576	3123
755.891	3200
756.206	3276
756.521	3356
756.836	3437
757.150	3517
757.465	3588
757.780	3648
758.094	3699
758.409	3739
758.723	3765
759.038	3777
759.352	3778
759.667	3768
759.981	3750
760.295	3731
760.609	3715
760.923	3705
761.238	3700
761.552	3697
761.866	3692
762.180	3685
762.493	3666
762.807	3630
763.121	3573
763.435	3501
763.749	3420
764.062	3343
764.376	3278
764.689	3234
765.003	3209
765.316	3204
765.630	3214
765.943	3232
766.257	3254
766.570	3273
766.883	3279
767.196	3272
767.509	3251
767.822	3221
768.135	3181
768.448	3137
768.761	3091
769.074	3050
769.387	3019
769.700	2999
770.013	2987
770.325	2979
770.638	2966
770.950	2942
771.263	2904
771.575	2850
771.888	2781
772.200	2700
772.513	2611
772.825	2518
773.137	2423
773.449	2330
773.761	2238
774.074	2154
774.386	2078
774.698	2014
775.010	1961
775.321	1923
775.633	1898
775.945	1883
776.257	1875
776.568	1872
776.880	1876
777.192	1890
777.503	1910
777.815	1936
778.126	1968
778.438	2009
778.749	2052
779.060	2095
779.372	2134
779.683	2173
779.994	2208
780.305	2237
780.616	2257
780.927	2270
781.238	2275
781.549	2271
781.860	2258
782.171	2238
782.481	2215
782.792	2193
783.103	2171
783.413	2147
783.724	2120
784.034	2095
784.345	2071
784.655	2050
784.966	2028
785.276	2005
785.586	1983
785.896	1961
786.207	1937
786.517	1912
786.827	1887
787.137	1865
787.447	1842
787.757	1821
788.066	1801
788.376	1781
788.686	1761
788.996	1741
789.305	1721
789.615	1704
789.925	1695
790.234	1692
790.544	1696
790.853	1705
791.162	1714
791.472	1722
791.781	1727
792.090	1724
792.399	1714
792.708	1699
793.017	1681
793.326	1663
793.635	1647
793.944	1631
794.253	1618
794.562	1608
794.871	1602
795.179	1598
795.488	1592
795.797	1584
796.105	1570
796.414	1547
796.722	1516
797.031	1476
797.339	1428
797.647	1374
797.956	1316
798.264	1262
798.572	1217
798.880	1181
799.188	1156
799.496	1136
799.804	1122
800.112	1112
800.420	1103
800.728	1094
801.035	1083
801.343	1070
801.651	1059
801.958	1056
802.266	1060
802.573	1069
802.881	1080
803.188	1094
803.496	1111
803.803	1127
804.110	1142
804.417	1155
804.724	1167
805.032	1177
805.339	1187
805.646	1193
805.953	1196
806.259	1197
806.566	1195
806.873	1191
807.180	1185
807.486	1179
807.793	1172
808.100	1160
808.406	1142
808.713	1116
809.019	1086
809.326	1056
809.632	1026
809.938	997
810.244	972
810.551	950
810.857	933
811.163	918
811.469	902
811.775	884
812.081	866
812.387	849
812.692	836
812.998	826
813.304	818
813.610	812
813.915	807
814.221	803
814.526	799
814.832	796
815.137	793
815.443	789
815.748	781
816.053	771
816.358	760
816.664	750
816.969	741
817.274	734
817.579	727
817.884	723
818.189	722
818.493	722
818.798	720
819.103	716
819.408	710
819.712	702
820.017	693
820.321	683
820.626	674
820.930	665
821.235	659
821.539	655
821.843	655
822.148	657
822.452	658
822.756	658
823.060	656
823.364	652
823.668	647
823.972	640
824.276	634
824.580	628
824.883	625
825.187	624
825.491	624
825.795	624
826.098	624
826.402	623
826.705	621
827.008	617
827.312	611
827.615	601
827.918	589
828.222	575
828.525	561
828.828	547
829.131	533
829.434	519
829.737	506
830.040	495
830.343	487
830.645	480
830.948	472
831.251	465
831.553	459
831.856	454
832.159	449
832.461	443
832.764	437
833.066	431
833.368	426
833.671	422
833.973	419
834.275	417
834.577	414
834.879	411
835.181	406
835.483	402
835.785	397
836.087	390
836.389	381
836.690	372
836.992	361
837.294	351
837.595	340
837.897	328
838.198	316
838.500	305
838.801	294
839.103	286
839.404	278
839.705	271
840.006	266
840.307	262
840.608	259
840.910	256
841.210	255
841.511	253
841.812	251
842.113	248
842.414	245
842.715	240
843.015	235
843.316	230
843.616	225
843.917	221
844.217	217
844.518	213
844.818	210
845.118	209
845.419	208
845.719	207
846.019	206
846.319	205
846.619	204
846.919	203
847.219	202
847.519	201
847.819	199
848.118	199
848.418	201
848.718	207
849.017	217
849.317	231
849.616	248
849.916	267
850.215	289
850.515	312
850.814	336
851.113	358
851.412	377
851.712	394
852.011	411
852.310	426
852.609	440
852.908	452
853.206	463
853.505	473
853.804	481
854.103	489
854.401	495
854.700	497
854.999	496
855.297	491
855.595	481
855.894	467
856.192	450
856.491	432
856.789	410
857.087	389
857.385	368
857.683	349
857.981	332
858.279	317
858.577	302
858.875	289
859.173	278
859.471	270
859.768	263
860.066	256
860.363	251
860.661	247
860.959	244
861.256	241
861.553	237
861.851	233
862.148	228
862.445	224
862.742	220
863.039	216
863.337	213
863.634	210
863.931	208
864.227	207
864.524	207
864.821	207
865.118	207
865.415	205
865.711	202
866.008	198
866.304	195
866.601	190
866.897	187
867.194	184
867.490	181
867.786	180
868.082	180
868.379	180
868.675	181
868.971	181
869.267	181
869.563	181
869.859	181
870.154	181
870.450	180
870.746	179
871.042	178
871.337	178
871.633	178
871.928	179
872.224	180
872.519	182
872.815	183
873.110	184
873.405	184
873.700	184
873.995	183
874.291	184
874.586	184
874.881	185
875.175	187
875.470	189
875.765	193
876.060	196
876.355	200
876.649	204
876.944	208
877.238	212
877.533	215
877.827	218
878.122	220
878.416	221
878.710	221
879.005	221
879.299	220
879.593	219
879.887	218
880.181	217
880.475	216
880.769	214
881.063	213
881.356	210
881.650	208
881.944	204
882.238	174
882.531	165
882.825	162
883.118	164
883.412	161
883.705	159
883.998	163
884.291	168
884.585	174
884.878	178
>>>>>>>>>> END of Data <<<<<<<<<<