Date	2021年06月15日火曜日 05時57分36秒
Spectrometers	USB2+H05879
ダーク	使用
リファレンス	使用
積分時間[msec]	10
平均回数	280
ｽﾑｰｼﾞﾝｸﾞ	10
Electrical Dark	USE
ピクセル数	2048
計測モード	吸光度
保存開始波長[nm]	190.664
保存終了波長[nm]	884.878
保存ﾋﾟｯﾁ波長[nm]	全波長

>>>>>>>>>> Data Start <<<<<<<<<<<<
190.664	0.000000
191.040	0.000000
191.415	0.000000
191.791	-2.654729
192.166	-0.500308
192.542	-0.833235
192.917	0.000000
193.293	-0.359799
193.668	-0.295683
194.044	-0.910085
194.419	0.000000
194.794	-1.401888
195.170	-1.324830
195.545	-1.239158
195.920	-1.099774
196.296	-0.983250
196.671	-0.820294
197.046	-0.662108
197.421	-0.609333
197.796	-0.602608
198.171	-0.570353
198.546	-0.518355
198.922	-0.463623
199.297	-0.442122
199.672	-0.418406
200.047	-0.387150
200.422	-0.357541
200.796	-0.342184
201.171	-0.321670
201.546	-0.315894
201.921	-0.306641
202.296	-0.295083
202.671	-0.268432
203.045	-0.245927
203.420	-0.227842
203.795	-0.214084
204.170	-0.207588
204.544	-0.208954
204.919	-0.209644
205.294	-0.206408
205.668	-0.192390
206.043	-0.179687
206.417	-0.179136
206.792	-0.174560
207.166	-0.160937
207.541	-0.161029
207.915	-0.169082
208.289	-0.157371
208.664	-0.157216
209.038	-0.156104
209.412	-0.143672
209.787	-0.124460
210.161	-0.113558
210.535	-0.117416
210.909	-0.101954
211.284	-0.109094
211.658	-0.110170
212.032	-0.106928
212.406	-0.110259
212.780	-0.113100
213.154	-0.116945
213.528	-0.117089
213.902	-0.114696
214.276	-0.111514
214.650	-0.111129
215.024	-0.108810
215.398	-0.102983
215.772	-0.093102
216.145	-0.088809
216.519	-0.083965
216.893	-0.084630
217.267	-0.093814
217.640	-0.099853
218.014	-0.085152
218.388	-0.078335
218.761	-0.089894
219.135	-0.074428
219.508	-0.078385
219.882	-0.085632
220.256	-0.075399
220.629	-0.070180
221.003	-0.067072
221.376	-0.068925
221.749	-0.071085
222.123	-0.074197
222.496	-0.076765
222.869	-0.074380
223.243	-0.068722
223.616	-0.065153
223.989	-0.070083
224.362	-0.064548
224.736	-0.060181
225.109	-0.051271
225.482	-0.050070
225.855	-0.055336
226.228	-0.055540
226.601	-0.054532
226.974	-0.051411
227.347	-0.043386
227.720	-0.038064
228.093	-0.047548
228.466	-0.049254
228.839	-0.053878
229.212	-0.058938
229.585	-0.062322
229.957	-0.055358
230.330	-0.043238
230.703	-0.040980
231.076	-0.043750
231.448	-0.056729
231.821	-0.058324
232.194	-0.058032
232.566	-0.062151
232.939	-0.065521
233.311	-0.071272
233.684	-0.064306
234.056	-0.063724
234.429	-0.054912
234.801	-0.061041
235.174	-0.062449
235.546	-0.071686
235.918	-0.069444
236.291	-0.068462
236.663	-0.060494
237.035	-0.052798
237.408	-0.037247
237.780	-0.030773
238.152	-0.042910
238.524	-0.044817
238.896	-0.040873
239.268	-0.030553
239.641	-0.024339
240.013	-0.015148
240.385	-0.008556
240.757	-0.009292
241.129	-0.004663
241.500	-0.010213
241.872	-0.011694
242.244	-0.010599
242.616	-0.011629
242.988	-0.006683
243.360	0.005977
243.731	0.018626
244.103	0.015787
244.475	0.014199
244.847	0.021692
245.218	0.017917
245.590	0.014715
245.961	0.023473
246.333	0.029294
246.705	0.025640
247.076	0.019530
247.448	0.014294
247.819	0.009519
248.190	0.017801
248.562	0.015106
248.933	0.017046
249.305	0.024193
249.676	0.037310
250.047	0.034423
250.418	0.039419
250.790	0.038617
251.161	0.040445
251.532	0.032786
251.903	0.035722
252.274	0.049704
252.645	0.049240
253.016	0.041903
253.387	0.032742
253.758	0.030865
254.129	0.032948
254.500	0.034549
254.871	0.038049
255.242	0.041169
255.613	0.035173
255.984	0.027660
256.355	0.032811
256.725	0.041389
257.096	0.040406
257.467	0.035313
257.838	0.033555
258.208	0.032529
258.579	0.033990
258.949	0.032564
259.320	0.037642
259.690	0.042135
260.061	0.036782
260.431	0.039080
260.802	0.043025
261.172	0.048626
261.543	0.057112
261.913	0.055267
262.283	0.055864
262.654	0.055694
263.024	0.052945
263.394	0.060074
263.764	0.063485
264.135	0.068240
264.505	0.062216
264.875	0.062746
265.245	0.058995
265.615	0.062428
265.985	0.067107
266.355	0.074511
266.725	0.073760
267.095	0.076956
267.465	0.073607
267.835	0.070303
268.205	0.059246
268.575	0.065573
268.944	0.071246
269.314	0.065898
269.684	0.064645
270.054	0.064786
270.423	0.068106
270.793	0.073453
271.163	0.064419
271.532	0.067507
271.902	0.070166
272.271	0.072104
272.641	0.077041
273.010	0.075841
273.380	0.072397
273.749	0.069245
274.119	0.072011
274.488	0.080118
274.857	0.074436
275.227	0.076257
275.596	0.079777
275.965	0.089088
276.335	0.090430
276.704	0.084590
277.073	0.084961
277.442	0.088764
277.811	0.086096
278.180	0.090211
278.549	0.089279
278.918	0.093809
279.287	0.088898
279.656	0.090211
280.025	0.092266
280.394	0.084204
280.763	0.088982
281.132	0.097106
281.501	0.103001
281.869	0.095149
282.238	0.092178
282.607	0.092259
282.976	0.093914
283.344	0.094919
283.713	0.092358
284.081	0.088809
284.450	0.102506
284.819	0.105074
285.187	0.110336
285.556	0.114071
285.924	0.109104
286.292	0.110287
286.661	0.113826
287.029	0.113205
287.398	0.110716
287.766	0.099040
288.134	0.099982
288.502	0.097040
288.871	0.095867
289.239	0.097000
289.607	0.095317
289.975	0.093658
290.343	0.101221
290.711	0.108792
291.079	0.107024
291.447	0.110889
291.815	0.113482
292.183	0.109948
292.551	0.111030
292.919	0.105440
293.287	0.105303
293.655	0.114542
294.022	0.113038
294.390	0.113762
294.758	0.121985
295.126	0.117543
295.493	0.127283
295.861	0.136722
296.229	0.135028
296.596	0.141668
296.964	0.138271
297.331	0.144181
297.699	0.141024
298.066	0.138502
298.434	0.136860
298.801	0.143088
299.168	0.146322
299.536	0.151122
299.903	0.148416
300.270	0.153537
300.638	0.164581
301.005	0.177260
301.372	0.176986
301.739	0.186119
302.106	0.192317
302.473	0.199952
302.840	0.213006
303.207	0.229979
303.574	0.242228
303.941	0.265122
304.308	0.271535
304.675	0.280599
305.042	0.291005
305.409	0.319637
305.776	0.338844
306.143	0.361442
306.509	0.379199
306.876	0.405383
307.243	0.422755
307.610	0.452968
307.976	0.474749
308.343	0.496669
308.709	0.522734
309.076	0.557639
309.442	0.584273
309.809	0.612102
310.175	0.636426
310.542	0.666709
310.908	0.693216
311.275	0.718614
311.641	0.746287
312.007	0.776110
312.373	0.814097
312.740	0.843859
313.106	0.865124
313.472	0.900267
313.838	0.921818
314.204	0.946223
314.570	0.959591
314.936	0.980296
315.302	0.999936
315.668	1.019064
316.034	1.049055
316.400	1.075228
316.766	1.088969
317.132	1.114787
317.498	1.136064
317.864	1.156260
318.230	1.171251
318.595	1.187259
318.961	1.203089
319.327	1.221161
319.692	1.233191
320.058	1.239501
320.424	1.252677
320.789	1.270759
321.155	1.281217
321.520	1.297710
321.886	1.317380
322.251	1.333451
322.616	1.350026
322.982	1.359243
323.347	1.366846
323.712	1.374898
324.078	1.382348
324.443	1.388973
324.808	1.396317
325.173	1.406468
325.539	1.413920
325.904	1.421389
326.269	1.428526
326.634	1.433542
326.999	1.435612
327.364	1.444345
327.729	1.451640
328.094	1.459013
328.459	1.462570
328.823	1.466684
329.188	1.473579
329.553	1.471975
329.918	1.476092
330.283	1.476891
330.647	1.484121
331.012	1.490658
331.377	1.493946
331.741	1.495627
332.106	1.500783
332.470	1.502674
332.835	1.502774
333.199	1.505917
333.564	1.508381
333.928	1.511054
334.293	1.514503
334.657	1.515890
335.021	1.516381
335.386	1.516987
335.750	1.516703
336.114	1.517321
336.478	1.519194
336.843	1.517757
337.207	1.521288
337.571	1.523786
337.935	1.525967
338.299	1.524932
338.663	1.524649
339.027	1.526053
339.391	1.527469
339.755	1.526552
340.119	1.526400
340.483	1.527221
340.846	1.527818
341.210	1.527645
341.574	1.528600
341.938	1.527363
342.301	1.528572
342.665	1.529240
343.029	1.530128
343.392	1.531529
343.756	1.531174
344.119	1.530439
344.483	1.531127
344.846	1.530126
345.210	1.530752
345.573	1.529638
345.937	1.530399
346.300	1.531130
346.663	1.529768
347.027	1.529074
347.390	1.529452
347.753	1.528927
348.116	1.528636
348.479	1.529658
348.843	1.529386
349.206	1.527511
349.569	1.527531
349.932	1.528085
350.295	1.528004
350.658	1.527536
351.021	1.529488
351.383	1.530141
351.746	1.530258
352.109	1.529590
352.472	1.530530
352.835	1.529589
353.197	1.531867
353.560	1.531179
353.923	1.530935
354.285	1.531316
354.648	1.532737
355.011	1.532720
355.373	1.533318
355.736	1.533130
356.098	1.531332
356.461	1.532756
356.823	1.533664
357.185	1.535663
357.548	1.535673
357.910	1.535871
358.272	1.536724
358.635	1.534656
358.997	1.535237
359.359	1.536280
359.721	1.536726
360.083	1.537095
360.445	1.538097
360.807	1.537652
361.169	1.538618
361.531	1.539365
361.893	1.540224
362.255	1.540280
362.617	1.542008
362.979	1.543010
363.341	1.542805
363.703	1.543734
364.064	1.543733
364.426	1.544324
364.788	1.544291
365.149	1.544849
365.511	1.546208
365.873	1.547345
366.234	1.548397
366.596	1.549220
366.957	1.549039
367.319	1.549747
367.680	1.550312
368.042	1.550130
368.403	1.550909
368.764	1.551926
369.126	1.552010
369.487	1.552944
369.848	1.552751
370.209	1.553240
370.570	1.553132
370.931	1.555162
371.293	1.555741
371.654	1.556781
372.015	1.557969
372.376	1.558292
372.737	1.558976
373.098	1.559379
373.458	1.559791
373.819	1.561237
374.180	1.562593
374.541	1.563885
374.902	1.564890
375.263	1.565294
375.623	1.566164
375.984	1.567175
376.345	1.567370
376.705	1.568910
377.066	1.569651
377.426	1.571095
377.787	1.570946
378.147	1.572882
378.508	1.572521
378.868	1.574037
379.228	1.574436
379.589	1.574649
379.949	1.575076
380.309	1.576617
380.670	1.576931
381.030	1.577085
381.390	1.577832
381.750	1.577367
382.110	1.577562
382.470	1.578254
382.830	1.579043
383.190	1.580388
383.550	1.580998
383.910	1.582180
384.270	1.583018
384.630	1.584693
384.990	1.585657
385.350	1.587129
385.709	1.587618
386.069	1.589212
386.429	1.589276
386.788	1.591438
387.148	1.592814
387.508	1.594670
387.867	1.595005
388.227	1.595879
388.586	1.597369
388.946	1.598066
389.305	1.599459
389.665	1.601634
390.024	1.603073
390.383	1.604338
390.743	1.604345
391.102	1.604524
391.461	1.605831
391.820	1.607180
392.179	1.605812
392.539	1.606452
392.898	1.608256
393.257	1.609050
393.616	1.610808
393.975	1.611429
394.334	1.612262
394.693	1.612638
395.051	1.613843
395.410	1.615149
395.769	1.616765
396.128	1.618505
396.487	1.619729
396.845	1.620203
397.204	1.620041
397.563	1.619738
397.921	1.619560
398.280	1.620171
398.638	1.620108
398.997	1.620188
399.355	1.620003
399.714	1.621328
400.072	1.621282
400.431	1.619737
400.789	1.618960
401.147	1.618605
401.506	1.618822
401.864	1.617583
402.222	1.618038
402.580	1.616690
402.938	1.616831
403.297	1.615594
403.655	1.614431
404.013	1.613527
404.371	1.613837
404.729	1.613369
405.087	1.613240
405.444	1.613490
405.802	1.613543
406.160	1.614498
406.518	1.613297
406.876	1.613189
407.233	1.612807
407.591	1.612988
407.949	1.613915
408.306	1.614227
408.664	1.614021
409.022	1.615046
409.379	1.615447
409.737	1.614874
410.094	1.614981
410.451	1.614776
410.809	1.614894
411.166	1.614786
411.523	1.615181
411.881	1.615028
412.238	1.615267
412.595	1.614698
412.952	1.614896
413.310	1.614747
413.667	1.614806
414.024	1.615938
414.381	1.615770
414.738	1.615139
415.095	1.614405
415.452	1.613293
415.809	1.612822
416.165	1.612513
416.522	1.611760
416.879	1.611340
417.236	1.610623
417.593	1.610048
417.949	1.608844
418.306	1.609251
418.663	1.610151
419.019	1.609821
419.376	1.609059
419.732	1.608183
420.089	1.609107
420.445	1.608824
420.802	1.609452
421.158	1.608396
421.514	1.607470
421.871	1.607301
422.227	1.606563
422.583	1.606136
422.939	1.605470
423.295	1.605196
423.652	1.605077
424.008	1.603655
424.364	1.603068
424.720	1.602464
425.076	1.602225
425.432	1.601185
425.788	1.600351
426.143	1.598406
426.499	1.596884
426.855	1.596418
427.211	1.595916
427.567	1.594082
427.922	1.593039
428.278	1.589920
428.634	1.589536
428.989	1.587937
429.345	1.585866
429.700	1.585079
430.056	1.584735
430.411	1.584568
430.767	1.583335
431.122	1.581542
431.478	1.580901
431.833	1.579955
432.188	1.579161
432.543	1.578019
432.899	1.576940
433.254	1.574787
433.609	1.573765
433.964	1.572779
434.319	1.570687
434.674	1.568671
435.029	1.567579
435.384	1.566033
435.739	1.564944
436.094	1.563325
436.449	1.563061
436.804	1.562224
437.158	1.560601
437.513	1.559072
437.868	1.556902
438.223	1.555905
438.577	1.554530
438.932	1.553902
439.287	1.552081
439.641	1.550342
439.996	1.548370
440.350	1.547338
440.704	1.546380
441.059	1.544334
441.413	1.542009
441.768	1.540067
442.122	1.538853
442.476	1.536784
442.830	1.534296
443.185	1.532980
443.539	1.531089
443.893	1.528702
444.247	1.526306
444.601	1.524602
444.955	1.521949
445.309	1.519833
445.663	1.517103
446.017	1.514808
446.371	1.511262
446.724	1.508413
447.078	1.505728
447.432	1.503064
447.786	1.499613
448.139	1.496237
448.493	1.493518
448.847	1.490709
449.200	1.488203
449.554	1.485171
449.907	1.482310
450.261	1.479044
450.614	1.475843
450.968	1.472360
451.321	1.468407
451.674	1.465184
452.027	1.461392
452.381	1.458488
452.734	1.455016
453.087	1.451819
453.440	1.447791
453.793	1.444321
454.146	1.441103
454.499	1.437791
454.852	1.433902
455.205	1.430411
455.558	1.427148
455.911	1.423900
456.264	1.420377
456.617	1.416677
456.970	1.413261
457.322	1.409419
457.675	1.406644
458.028	1.403463
458.380	1.400339
458.733	1.397710
459.086	1.394664
459.438	1.391955
459.791	1.388531
460.143	1.385759
460.496	1.382547
460.848	1.379513
461.200	1.376313
461.553	1.372569
461.905	1.369661
462.257	1.366599
462.609	1.363577
462.961	1.361030
463.314	1.357607
463.666	1.354584
464.018	1.351725
464.370	1.348694
464.722	1.346140
465.074	1.342894
465.426	1.340003
465.777	1.337239
466.129	1.334241
466.481	1.331335
466.833	1.328276
467.184	1.325262
467.536	1.321507
467.888	1.318517
468.239	1.315314
468.591	1.312252
468.943	1.308801
469.294	1.304618
469.646	1.301151
469.997	1.297559
470.348	1.293209
470.700	1.289938
471.051	1.287331
471.402	1.283838
471.754	1.280782
472.105	1.277798
472.456	1.275050
472.807	1.271840
473.158	1.269140
473.509	1.266873
473.860	1.264325
474.211	1.261929
474.562	1.259497
474.913	1.257164
475.264	1.254448
475.615	1.252072
475.966	1.249549
476.316	1.247441
476.667	1.245085
477.018	1.242670
477.368	1.240110
477.719	1.237671
478.070	1.234965
478.420	1.232113
478.771	1.229694
479.121	1.227290
479.472	1.225001
479.822	1.222564
480.172	1.220417
480.523	1.217881
480.873	1.214840
481.223	1.211362
481.573	1.207788
481.924	1.204528
482.274	1.201338
482.624	1.198688
482.974	1.196357
483.324	1.194490
483.674	1.193069
484.024	1.191895
484.374	1.190549
484.724	1.189095
485.073	1.187744
485.423	1.186272
485.773	1.184765
486.123	1.183214
486.472	1.181469
486.822	1.179807
487.172	1.178236
487.521	1.176503
487.871	1.174823
488.220	1.173224
488.570	1.171627
488.919	1.169671
489.268	1.167280
489.618	1.164754
489.967	1.161631
490.316	1.157912
490.666	1.154007
491.015	1.149859
491.364	1.145947
491.713	1.142335
492.062	1.139200
492.411	1.136187
492.760	1.133573
493.109	1.130727
493.458	1.128071
493.807	1.125611
494.156	1.122925
494.505	1.120221
494.853	1.117681
495.202	1.115106
495.551	1.112254
495.900	1.109721
496.248	1.107017
496.597	1.104369
496.945	1.101998
497.294	1.099544
497.642	1.097207
497.991	1.094588
498.339	1.091972
498.688	1.089361
499.036	1.087188
499.384	1.084817
499.732	1.082474
500.081	1.080005
500.429	1.077573
500.777	1.075147
501.125	1.072833
501.473	1.070626
501.821	1.068399
502.169	1.066062
502.517	1.063723
502.865	1.061485
503.213	1.059188
503.561	1.057088
503.908	1.055039
504.256	1.052715
504.604	1.050421
504.952	1.048145
505.299	1.045945
505.647	1.043720
505.994	1.041571
506.342	1.039196
506.689	1.036840
507.037	1.034546
507.384	1.032188
507.732	1.030079
508.079	1.027875
508.426	1.025580
508.774	1.023258
509.121	1.021110
509.468	1.019067
509.815	1.016978
510.162	1.015008
510.509	1.012932
510.856	1.010869
511.203	1.008694
511.550	1.006648
511.897	1.004650
512.244	1.002691
512.591	1.000580
512.938	0.998612
513.284	0.996464
513.631	0.994429
513.978	0.992629
514.324	0.990811
514.671	0.989028
515.018	0.987022
515.364	0.985242
515.711	0.983388
516.057	0.981355
516.403	0.979390
516.750	0.977526
517.096	0.975820
517.443	0.974019
517.789	0.972236
518.135	0.970458
518.481	0.968766
518.827	0.966923
519.173	0.965042
519.519	0.963190
519.865	0.961483
520.211	0.959866
520.557	0.958239
520.903	0.956537
521.249	0.954723
521.595	0.952722
521.941	0.950582
522.287	0.948615
522.632	0.946647
522.978	0.944773
523.324	0.943118
523.669	0.941323
524.015	0.939333
524.360	0.937251
524.706	0.935364
525.051	0.933500
525.397	0.931583
525.742	0.929652
526.087	0.927879
526.433	0.926312
526.778	0.924727
527.123	0.923029
527.468	0.921204
527.813	0.919602
528.158	0.917890
528.504	0.916046
528.849	0.914198
529.193	0.912671
529.538	0.911003
529.883	0.909008
530.228	0.907080
530.573	0.905083
530.918	0.903213
531.263	0.901452
531.607	0.899759
531.952	0.897957
532.296	0.896200
532.641	0.894556
532.986	0.892774
533.330	0.890894
533.675	0.889064
534.019	0.887049
534.363	0.885028
534.708	0.883097
535.052	0.880983
535.396	0.879124
535.741	0.877298
536.085	0.875331
536.429	0.873269
536.773	0.871199
537.117	0.869265
537.461	0.867153
537.805	0.865034
538.149	0.862723
538.493	0.860356
538.837	0.857998
539.181	0.855727
539.524	0.853223
539.868	0.850677
540.212	0.848223
540.556	0.845796
540.899	0.843286
541.243	0.840815
541.586	0.838515
541.930	0.836114
542.273	0.833805
542.617	0.831237
542.960	0.828711
543.304	0.826026
543.647	0.823243
543.990	0.820478
544.333	0.817653
544.677	0.814861
545.020	0.812085
545.363	0.809288
545.706	0.806539
546.049	0.803800
546.392	0.801024
546.735	0.798354
547.078	0.795536
547.421	0.792685
547.764	0.789772
548.106	0.786680
548.449	0.783555
548.792	0.780260
549.135	0.776943
549.477	0.773669
549.820	0.770509
550.162	0.767242
550.505	0.764087
550.847	0.760815
551.190	0.757326
551.532	0.753758
551.875	0.750068
552.217	0.746197
552.559	0.742537
552.901	0.738873
553.244	0.735217
553.586	0.731558
553.928	0.728107
554.270	0.724803
554.612	0.721340
554.954	0.717889
555.296	0.714451
555.638	0.710864
555.980	0.707078
556.322	0.703065
556.663	0.698835
557.005	0.694489
557.347	0.690276
557.689	0.686120
558.030	0.682186
558.372	0.678263
558.713	0.674404
559.055	0.670451
559.396	0.666538
559.738	0.662454
560.079	0.658334
560.421	0.654204
560.762	0.650282
561.103	0.646183
561.444	0.642194
561.786	0.638384
562.127	0.634547
562.468	0.630561
562.809	0.626582
563.150	0.622553
563.491	0.618391
563.832	0.614084
564.173	0.609586
564.514	0.604906
564.855	0.600185
565.195	0.595145
565.536	0.590241
565.877	0.585336
566.218	0.580606
566.558	0.576006
566.899	0.571605
567.239	0.567486
567.580	0.563650
567.920	0.559977
568.261	0.556767
568.601	0.553579
568.941	0.550609
569.282	0.547773
569.622	0.544952
569.962	0.542121
570.302	0.539220
570.643	0.536460
570.983	0.533839
571.323	0.531352
571.663	0.528985
572.003	0.526631
572.343	0.524283
572.683	0.521811
573.022	0.519178
573.362	0.516340
573.702	0.513449
574.042	0.510622
574.381	0.507845
574.721	0.505176
575.061	0.502665
575.400	0.500272
575.740	0.497984
576.079	0.495682
576.419	0.493234
576.758	0.490640
577.097	0.487871
577.437	0.485014
577.776	0.482110
578.115	0.479212
578.454	0.476506
578.794	0.474076
579.133	0.472000
579.472	0.470163
579.811	0.468478
580.150	0.466828
580.489	0.465118
580.828	0.463219
581.167	0.461162
581.505	0.459045
581.844	0.456909
582.183	0.454763
582.522	0.452660
582.860	0.450671
583.199	0.448763
583.538	0.446979
583.876	0.445260
584.215	0.443628
584.553	0.442003
584.891	0.440420
585.230	0.438831
585.568	0.437168
585.906	0.435356
586.245	0.433416
586.583	0.431486
586.921	0.429641
587.259	0.427953
587.597	0.426424
587.935	0.424921
588.273	0.423340
588.611	0.421577
588.949	0.419637
589.287	0.417595
589.625	0.415486
589.963	0.413419
590.300	0.411447
590.638	0.409661
590.976	0.407966
591.313	0.406259
591.651	0.404556
591.989	0.402839
592.326	0.401195
592.664	0.399644
593.001	0.398182
593.338	0.396853
593.676	0.395595
594.013	0.394347
594.350	0.393081
594.687	0.391822
595.025	0.390706
595.362	0.389593
595.699	0.388447
596.036	0.387359
596.373	0.386313
596.710	0.385241
597.047	0.384088
597.384	0.382938
597.720	0.381722
598.057	0.380508
598.394	0.379265
598.731	0.378063
599.067	0.376841
599.404	0.375563
599.741	0.374342
600.077	0.373191
600.414	0.372107
600.750	0.371155
601.087	0.370288
601.423	0.369458
601.759	0.368666
602.096	0.367770
602.432	0.366926
602.768	0.366103
603.104	0.365259
603.440	0.364352
603.776	0.363497
604.112	0.362649
604.448	0.361811
604.784	0.361010
605.120	0.360220
605.456	0.359485
605.792	0.358732
606.128	0.357979
606.463	0.357258
606.799	0.356432
607.135	0.355625
607.470	0.354857
607.806	0.354052
608.142	0.353235
608.477	0.352456
608.812	0.351661
609.148	0.350981
609.483	0.350265
609.819	0.349546
610.154	0.348798
610.489	0.348040
610.824	0.347286
611.159	0.346561
611.494	0.345845
611.830	0.345187
612.165	0.344554
612.500	0.344007
612.834	0.343492
613.169	0.343021
613.504	0.342552
613.839	0.342080
614.174	0.341573
614.509	0.340982
614.843	0.340387
615.178	0.339881
615.512	0.339383
615.847	0.338880
616.182	0.338379
616.516	0.337948
616.850	0.337508
617.185	0.337098
617.519	0.336708
617.853	0.336307
618.188	0.335790
618.522	0.335188
618.856	0.334457
619.190	0.333767
619.524	0.333012
619.858	0.332284
620.192	0.331564
620.526	0.330924
620.860	0.330486
621.194	0.329988
621.528	0.329481
621.862	0.329096
622.195	0.328667
622.529	0.328194
622.863	0.327754
623.196	0.327276
623.530	0.326855
623.864	0.326455
624.197	0.326031
624.530	0.325557
624.864	0.325100
625.197	0.324782
625.531	0.324511
625.864	0.324217
626.197	0.323862
626.530	0.323563
626.863	0.323239
627.196	0.322860
627.529	0.322492
627.862	0.321961
628.195	0.321495
628.528	0.321085
628.861	0.320520
629.194	0.319977
629.527	0.319510
629.860	0.319063
630.192	0.318583
630.525	0.317995
630.858	0.317499
631.190	0.316958
631.523	0.316475
631.855	0.315751
632.188	0.315076
632.520	0.314437
632.852	0.313893
633.185	0.313407
633.517	0.312904
633.849	0.312464
634.182	0.312074
634.514	0.311714
634.846	0.311340
635.178	0.311086
635.510	0.310707
635.842	0.310387
636.174	0.310099
636.506	0.309761
636.837	0.309389
637.169	0.309102
637.501	0.308818
637.833	0.308588
638.164	0.308363
638.496	0.308063
638.828	0.307872
639.159	0.307574
639.491	0.307311
639.822	0.306941
640.154	0.306534
640.485	0.306022
640.816	0.305405
641.147	0.304938
641.479	0.304309
641.810	0.303791
642.141	0.303169
642.472	0.302669
642.803	0.302095
643.134	0.301536
643.465	0.301046
643.796	0.300651
644.127	0.300004
644.458	0.299458
644.789	0.298853
645.119	0.298336
645.450	0.297942
645.781	0.297907
646.111	0.298087
646.442	0.298128
646.773	0.298270
647.103	0.298332
647.433	0.298268
647.764	0.298227
648.094	0.298036
648.425	0.297968
648.755	0.297903
649.085	0.297786
649.415	0.297778
649.745	0.297940
650.075	0.297957
650.405	0.297943
650.735	0.295912
651.065	0.284281
651.395	0.272391
651.725	0.255164
652.055	0.214446
652.385	0.176197
652.715	0.143575
653.044	0.117305
653.374	0.105908
653.704	0.110593
654.033	0.127033
654.363	0.137303
654.692	0.143614
655.022	0.147507
655.351	0.149945
655.680	0.151423
656.010	0.152241
656.339	0.152623
656.668	0.152733
656.997	0.152714
657.326	0.152596
657.655	0.152414
657.984	0.151232
658.313	0.146002
658.642	0.138628
658.971	0.141295
659.300	0.153793
659.629	0.178852
659.958	0.221858
660.286	0.273481
660.615	0.313129
660.944	0.314288
661.272	0.312396
661.601	0.308822
661.929	0.304702
662.258	0.300830
662.586	0.297372
662.915	0.294550
663.243	0.292304
663.571	0.290807
663.899	0.289782
664.228	0.289048
664.556	0.288458
664.884	0.287777
665.212	0.287342
665.540	0.286975
665.868	0.286772
666.196	0.286617
666.524	0.286516
666.852	0.286182
667.179	0.285924
667.507	0.285653
667.835	0.285398
668.162	0.285094
668.490	0.284816
668.818	0.284606
669.145	0.284469
669.473	0.284359
669.800	0.284336
670.127	0.284558
670.455	0.284709
670.782	0.284763
671.109	0.284800
671.436	0.284950
671.764	0.285126
672.091	0.285169
672.418	0.285156
672.745	0.285191
673.072	0.285057
673.399	0.284854
673.726	0.284600
674.053	0.284500
674.379	0.284417
674.706	0.284302
675.033	0.284120
675.359	0.284055
675.686	0.283960
676.013	0.283838
676.339	0.283691
676.666	0.283421
676.992	0.283053
677.318	0.282902
677.645	0.282713
677.971	0.282597
678.297	0.282543
678.624	0.282479
678.950	0.282388
679.276	0.282387
679.602	0.282295
679.928	0.282153
680.254	0.282018
680.580	0.281903
680.906	0.281730
681.232	0.281616
681.558	0.281636
681.883	0.281736
682.209	0.281756
682.535	0.281833
682.860	0.281850
683.186	0.281979
683.511	0.282043
683.837	0.282004
684.162	0.281943
684.488	0.281915
684.813	0.281843
685.138	0.281626
685.464	0.281492
685.789	0.281340
686.114	0.281229
686.439	0.281114
686.764	0.281029
687.089	0.281025
687.414	0.281112
687.739	0.281142
688.064	0.281118
688.389	0.281088
688.714	0.280951
689.039	0.280883
689.363	0.280811
689.688	0.280774
690.013	0.280538
690.337	0.280392
690.662	0.280385
690.986	0.280279
691.311	0.280202
691.635	0.280144
691.959	0.280057
692.284	0.279824
692.608	0.279634
692.932	0.279434
693.256	0.279352
693.580	0.279299
693.904	0.279189
694.228	0.279149
694.552	0.279282
694.876	0.279502
695.200	0.279588
695.524	0.279625
695.848	0.279588
696.172	0.279370
696.495	0.279129
696.819	0.279026
697.143	0.278799
697.466	0.278513
697.790	0.278144
698.113	0.277817
698.437	0.277373
698.760	0.277070
699.083	0.276935
699.407	0.276917
699.730	0.276855
700.053	0.276853
700.376	0.276869
700.699	0.276795
701.022	0.276694
701.345	0.276288
701.668	0.275784
701.991	0.275185
702.314	0.274546
702.637	0.273799
702.960	0.273124
703.283	0.272505
703.605	0.271731
703.928	0.271303
704.251	0.271121
704.573	0.271115
704.896	0.271084
705.218	0.271241
705.540	0.271325
705.863	0.271307
706.185	0.271025
706.507	0.270748
706.830	0.270308
707.152	0.269857
707.474	0.269359
707.796	0.268909
708.118	0.268562
708.440	0.268221
708.762	0.268055
709.084	0.267965
709.406	0.267892
709.728	0.267764
710.049	0.267748
710.371	0.267755
710.693	0.267612
711.014	0.267307
711.336	0.267046
711.658	0.266801
711.979	0.266522
712.301	0.266232
712.622	0.266076
712.943	0.266011
713.265	0.266014
713.586	0.265942
713.907	0.265910
714.228	0.266065
714.549	0.266063
714.870	0.266048
715.191	0.266100
715.512	0.266099
715.833	0.266098
716.154	0.266114
716.475	0.266164
716.796	0.266052
717.117	0.265964
717.437	0.265735
717.758	0.265465
718.078	0.265130
718.399	0.264830
718.719	0.264491
719.040	0.264216
719.360	0.263835
719.681	0.263533
720.001	0.263229
720.321	0.263015
720.642	0.262788
720.962	0.262445
721.282	0.262189
721.602	0.261978
721.922	0.261783
722.242	0.261545
722.562	0.261288
722.882	0.261087
723.202	0.261038
723.521	0.260998
723.841	0.261047
724.161	0.261109
724.481	0.261226
724.800	0.261229
725.120	0.261102
725.439	0.261039
725.759	0.260919
726.078	0.260854
726.398	0.260708
726.717	0.260621
727.036	0.260570
727.355	0.260620
727.675	0.260830
727.994	0.261060
728.313	0.261283
728.632	0.261383
728.951	0.261491
729.270	0.261516
729.589	0.261525
729.908	0.261331
730.226	0.261036
730.545	0.260734
730.864	0.260477
731.182	0.260237
731.501	0.260116
731.820	0.260162
732.138	0.260156
732.457	0.260111
732.775	0.260099
733.093	0.260148
733.412	0.260142
733.730	0.260137
734.048	0.260100
734.367	0.259918
734.685	0.259739
735.003	0.259485
735.321	0.259306
735.639	0.259060
735.957	0.258877
736.275	0.258608
736.593	0.258601
736.910	0.258629
737.228	0.258756
737.546	0.258858
737.863	0.258906
738.181	0.258822
738.499	0.258615
738.816	0.258431
739.134	0.258302
739.451	0.258118
739.768	0.257964
740.086	0.257769
740.403	0.257510
740.720	0.257248
741.038	0.256966
741.355	0.256562
741.672	0.256186
741.989	0.255870
742.306	0.255502
742.623	0.255142
742.940	0.254842
743.257	0.254276
743.573	0.253723
743.890	0.252938
744.207	0.252281
744.523	0.251768
744.840	0.251350
745.157	0.250887
745.473	0.250429
745.790	0.250035
746.106	0.249533
746.422	0.249058
746.739	0.248699
747.055	0.248441
747.371	0.248201
747.687	0.248135
748.004	0.248237
748.320	0.248396
748.636	0.248444
748.952	0.248546
749.268	0.248556
749.584	0.248683
749.899	0.248798
750.215	0.248855
750.531	0.248862
750.847	0.248897
751.162	0.248914
751.478	0.248996
751.793	0.248957
752.109	0.248919
752.424	0.248853
752.740	0.248850
753.055	0.248873
753.370	0.248881
753.686	0.248965
754.001	0.249190
754.316	0.249401
754.631	0.249606
754.946	0.249716
755.261	0.249819
755.576	0.249917
755.891	0.250029
756.206	0.249970
756.521	0.249939
756.836	0.249943
757.150	0.250047
757.465	0.250168
757.780	0.250195
758.094	0.250298
758.409	0.250416
758.723	0.250617
759.038	0.250726
759.352	0.250846
759.667	0.250868
759.981	0.250840
760.295	0.250697
760.609	0.250401
760.923	0.250084
761.238	0.249747
761.552	0.249526
761.866	0.249299
762.180	0.249194
762.493	0.249195
762.807	0.249223
763.121	0.249213
763.435	0.249150
763.749	0.248997
764.062	0.248713
764.376	0.248439
764.689	0.248006
765.003	0.247634
765.316	0.247267
765.630	0.247057
765.943	0.246767
766.257	0.246688
766.570	0.246512
766.883	0.246386
767.196	0.246297
767.509	0.246115
767.822	0.245856
768.135	0.245628
768.448	0.245371
768.761	0.245052
769.074	0.244723
769.387	0.244378
769.700	0.244052
770.013	0.243816
770.325	0.243618
770.638	0.243564
770.950	0.243468
771.263	0.243389
771.575	0.243335
771.888	0.243130
772.200	0.242845
772.513	0.242613
772.825	0.242229
773.137	0.242014
773.449	0.241775
773.761	0.241412
774.074	0.241142
774.386	0.240872
774.698	0.240386
775.010	0.239904
775.321	0.239416
775.633	0.238849
775.945	0.238512
776.257	0.238236
776.568	0.237980
776.880	0.237780
777.192	0.237537
777.503	0.237391
777.815	0.237252
778.126	0.237287
778.438	0.237336
778.749	0.237592
779.060	0.237742
779.372	0.237846
779.683	0.237921
779.994	0.238001
780.305	0.238150
780.616	0.238292
780.927	0.238466
781.238	0.238524
781.549	0.238686
781.860	0.238819
782.171	0.238942
782.481	0.238981
782.792	0.238913
783.103	0.238900
783.413	0.238821
783.724	0.238543
784.034	0.238408
784.345	0.238186
784.655	0.237886
784.966	0.237738
785.276	0.237440
785.586	0.237231
785.896	0.237131
786.207	0.237020
786.517	0.236895
786.827	0.236765
787.137	0.236624
787.447	0.236483
787.757	0.236528
788.066	0.236411
788.376	0.236341
788.686	0.236193
788.996	0.236168
789.305	0.236097
789.615	0.235979
789.925	0.235837
790.234	0.235875
790.544	0.235901
790.853	0.235970
791.162	0.236065
791.472	0.236103
791.781	0.236307
792.090	0.236479
792.399	0.236434
792.708	0.236301
793.017	0.236235
793.326	0.236239
793.635	0.236139
793.944	0.235875
794.253	0.235541
794.562	0.235275
794.871	0.235050
795.179	0.234941
795.488	0.234722
795.797	0.234575
796.105	0.234456
796.414	0.234497
796.722	0.234483
797.031	0.234330
797.339	0.234222
797.647	0.233801
797.956	0.233468
798.264	0.232707
798.572	0.232109
798.880	0.231575
799.188	0.231047
799.496	0.230581
799.804	0.230040
800.112	0.229573
800.420	0.229274
800.728	0.229031
801.035	0.228970
801.343	0.228546
801.651	0.227998
801.958	0.227415
802.266	0.227189
802.573	0.227109
802.881	0.227016
803.188	0.226742
803.496	0.226744
803.803	0.226979
804.110	0.227196
804.417	0.227018
804.724	0.226998
805.032	0.226934
805.339	0.227035
805.646	0.227080
805.953	0.226885
806.259	0.226715
806.566	0.226704
806.873	0.226813
807.180	0.226848
807.486	0.226733
807.793	0.226912
808.100	0.226999
808.406	0.227023
808.713	0.227000
809.019	0.226543
809.326	0.226058
809.632	0.225923
809.938	0.225267
810.244	0.224249
810.551	0.223726
810.857	0.223248
811.163	0.222968
811.469	0.222587
811.775	0.222148
812.081	0.221905
812.387	0.221905
812.692	0.221705
812.998	0.221538
813.304	0.221304
813.610	0.221392
813.915	0.221144
814.221	0.220854
814.526	0.220932
814.832	0.221103
815.137	0.221022
815.443	0.221139
815.748	0.221310
816.053	0.220998
816.358	0.220796
816.664	0.220939
816.969	0.220834
817.274	0.220736
817.579	0.220301
817.884	0.220038
818.189	0.219787
818.493	0.219446
818.798	0.219445
819.103	0.219394
819.408	0.219206
819.712	0.218978
820.017	0.218495
820.321	0.218386
820.626	0.218140
820.930	0.217555
821.235	0.217052
821.539	0.216754
821.843	0.216458
822.148	0.216019
822.452	0.216101
822.756	0.216263
823.060	0.216078
823.364	0.216090
823.668	0.216270
823.972	0.216377
824.276	0.216198
824.580	0.216008
824.883	0.216060
825.187	0.215780
825.491	0.215716
825.795	0.215466
826.098	0.215264
826.402	0.215087
826.705	0.215255
827.008	0.215173
827.312	0.214934
827.615	0.214681
827.918	0.214697
828.222	0.214526
828.525	0.214285
828.828	0.213810
829.131	0.213713
829.434	0.213499
829.737	0.212492
830.040	0.211320
830.343	0.210792
830.645	0.210733
830.948	0.210180
831.251	0.209451
831.553	0.208944
831.856	0.208664
832.159	0.208753
832.461	0.208664
832.764	0.208450
833.066	0.207672
833.368	0.207506
833.671	0.207385
833.973	0.207262
834.275	0.206308
834.577	0.206413
834.879	0.206297
835.181	0.206151
835.483	0.205546
835.785	0.205056
836.087	0.204973
836.389	0.205016
836.690	0.204005
836.992	0.202556
837.294	0.202013
837.595	0.201281
837.897	0.200066
838.198	0.199099
838.500	0.197549
838.801	0.196545
839.103	0.195645
839.404	0.195075
839.705	0.193586
840.006	0.193003
840.307	0.192679
840.608	0.192774
840.910	0.191880
841.210	0.191472
841.511	0.191185
841.812	0.190962
842.113	0.190693
842.414	0.189839
842.715	0.189007
843.015	0.188978
843.316	0.189056
843.616	0.187761
843.917	0.187560
844.217	0.187086
844.518	0.185999
844.818	0.185833
845.118	0.185138
845.419	0.184920
845.719	0.184526
846.019	0.183862
846.319	0.184244
846.619	0.183575
846.919	0.183682
847.219	0.183726
847.519	0.183632
847.819	0.183197
848.118	0.182997
848.418	0.182608
848.718	0.182742
849.017	0.182515
849.317	0.182591
849.616	0.182666
849.916	0.183831
850.215	0.184563
850.515	0.185530
850.814	0.186312
851.113	0.187159
851.412	0.187957
851.712	0.188193
852.011	0.188834
852.310	0.190152
852.609	0.190503
852.908	0.191092
853.206	0.191349
853.505	0.191779
853.804	0.192160
854.103	0.192613
854.401	0.192729
854.700	0.193031
854.999	0.193052
855.297	0.193518
855.595	0.193545
855.894	0.193701
856.192	0.193643
856.491	0.193470
856.789	0.193149
857.087	0.192557
857.385	0.191881
857.683	0.191319
857.981	0.190943
858.279	0.190132
858.577	0.188526
858.875	0.187013
859.173	0.185614
859.471	0.184424
859.768	0.183215
860.066	0.181510
860.363	0.180152
860.661	0.179054
860.959	0.178407
861.256	0.178584
861.553	0.178077
861.851	0.177739
862.148	0.177074
862.445	0.176591
862.742	0.175458
863.039	0.174849
863.337	0.174818
863.634	0.173480
863.931	0.172419
864.227	0.172539
864.524	0.171397
864.821	0.171670
865.118	0.171412
865.415	0.171407
865.711	0.171044
866.008	0.170443
866.304	0.170354
866.601	0.170545
866.897	0.170775
867.194	0.170536
867.490	0.169888
867.786	0.168556
868.082	0.168513
868.379	0.168713
868.675	0.168439
868.971	0.168859
869.267	0.169005
869.563	0.169093
869.859	0.169737
870.154	0.170020
870.450	0.169508
870.746	0.169564
871.042	0.169446
871.337	0.169256
871.633	0.168832
871.928	0.169256
872.224	0.168948
872.519	0.168058
872.815	0.167652
873.110	0.167221
873.405	0.166567
873.700	0.165915
873.995	0.166082
874.291	0.165842
874.586	0.166043
874.881	0.165206
875.175	0.164708
875.470	0.164572
875.765	0.164566
876.060	0.164607
876.355	0.164596
876.649	0.164225
876.944	0.164875
877.238	0.165017
877.533	0.165457
877.827	0.166305
878.122	0.166588
878.416	0.167108
878.710	0.168592
879.005	0.168437
879.299	0.168341
879.593	0.168165
879.887	0.168142
880.181	0.168270
880.475	0.167877
880.769	0.167655
881.063	0.168324
881.356	0.168345
881.650	0.168261
881.944	0.167941
882.238	0.160313
882.531	0.159931
882.825	0.159472
883.118	0.162789
883.412	0.154607
883.705	0.169386
883.998	0.166285
884.291	0.156671
884.585	0.163488
884.878	0.159276
>>>>>>>>>> END of Data <<<<<<<<<<
>>>>>>>>>> Raw Data Start <<<<<<<<
190.664	-392
191.040	6
191.415	6
191.791	8
192.166	7
192.542	8
192.917	6
193.293	6
193.668	4
194.044	6
194.419	-9
194.794	10
195.170	10
195.545	11
195.920	11
196.296	11
196.671	11
197.046	12
197.421	12
197.796	13
198.171	14
198.546	13
198.922	14
199.297	14
199.672	15
200.047	15
200.422	15
200.796	15
201.171	15
201.546	15
201.921	15
202.296	15
202.671	15
203.045	15
203.420	15
203.795	15
204.170	15
204.544	15
204.919	15
205.294	15
205.668	15
206.043	15
206.417	15
206.792	15
207.166	14
207.541	14
207.915	14
208.289	14
208.664	14
209.038	14
209.412	14
209.787	14
210.161	14
210.535	14
210.909	14
211.284	14
211.658	14
212.032	14
212.406	14
212.780	14
213.154	14
213.528	14
213.902	14
214.276	14
214.650	14
215.024	14
215.398	14
215.772	14
216.145	14
216.519	14
216.893	14
217.267	14
217.640	14
218.014	14
218.388	15
218.761	15
219.135	15
219.508	15
219.882	15
220.256	15
220.629	15
221.003	15
221.376	15
221.749	15
222.123	15
222.496	15
222.869	15
223.243	15
223.616	15
223.989	15
224.362	15
224.736	15
225.109	15
225.482	15
225.855	15
226.228	15
226.601	15
226.974	15
227.347	15
227.720	15
228.093	15
228.466	14
228.839	15
229.212	15
229.585	14
229.957	14
230.330	14
230.703	14
231.076	14
231.448	15
231.821	15
232.194	15
232.566	15
232.939	15
233.311	14
233.684	14
234.056	14
234.429	14
234.801	14
235.174	15
235.546	15
235.918	15
236.291	15
236.663	15
237.035	15
237.408	15
237.780	15
238.152	16
238.524	16
238.896	16
239.268	15
239.641	15
240.013	15
240.385	15
240.757	15
241.129	15
241.500	15
241.872	16
242.244	16
242.616	16
242.988	15
243.360	15
243.731	15
244.103	15
244.475	15
244.847	15
245.218	15
245.590	15
245.961	15
246.333	15
246.705	15
247.076	15
247.448	16
247.819	16
248.190	16
248.562	16
248.933	16
249.305	16
249.676	16
250.047	16
250.418	16
250.790	16
251.161	16
251.532	16
251.903	16
252.274	15
252.645	15
253.016	15
253.387	16
253.758	16
254.129	16
254.500	16
254.871	16
255.242	16
255.613	16
255.984	16
256.355	16
256.725	15
257.096	15
257.467	15
257.838	16
258.208	16
258.579	16
258.949	16
259.320	16
259.690	16
260.061	16
260.431	17
260.802	17
261.172	16
261.543	16
261.913	16
262.283	16
262.654	16
263.024	16
263.394	16
263.764	16
264.135	16
264.505	16
264.875	16
265.245	16
265.615	16
265.985	16
266.355	16
266.725	16
267.095	16
267.465	16
267.835	16
268.205	16
268.575	16
268.944	16
269.314	16
269.684	16
270.054	15
270.423	15
270.793	15
271.163	16
271.532	16
271.902	16
272.271	15
272.641	15
273.010	15
273.380	16
273.749	16
274.119	16
274.488	16
274.857	16
275.227	16
275.596	16
275.965	16
276.335	16
276.704	16
277.073	16
277.442	16
277.811	17
278.180	17
278.549	17
278.918	17
279.287	17
279.656	17
280.025	17
280.394	17
280.763	17
281.132	17
281.501	17
281.869	17
282.238	17
282.607	17
282.976	16
283.344	16
283.713	16
284.081	16
284.450	16
284.819	16
285.187	16
285.556	16
285.924	16
286.292	16
286.661	16
287.029	15
287.398	16
287.766	16
288.134	16
288.502	16
288.871	17
289.239	17
289.607	17
289.975	17
290.343	17
290.711	17
291.079	17
291.447	17
291.815	17
292.183	17
292.551	17
292.919	17
293.287	17
293.655	17
294.022	17
294.390	17
294.758	17
295.126	17
295.493	16
295.861	16
296.229	16
296.596	16
296.964	16
297.331	16
297.699	16
298.066	16
298.434	17
298.801	17
299.168	16
299.536	16
299.903	16
300.270	16
300.638	16
301.005	16
301.372	16
301.739	16
302.106	16
302.473	17
302.840	17
303.207	17
303.574	17
303.941	16
304.308	17
304.675	17
305.042	17
305.409	17
305.776	17
306.143	16
306.509	17
306.876	17
307.243	17
307.610	17
307.976	17
308.343	17
308.709	17
309.076	17
309.442	17
309.809	17
310.175	18
310.542	18
310.908	18
311.275	18
311.641	18
312.007	18
312.373	18
312.740	18
313.106	18
313.472	18
313.838	18
314.204	19
314.570	19
314.936	20
315.302	20
315.668	21
316.034	20
316.400	20
316.766	21
317.132	21
317.498	21
317.864	21
318.230	22
318.595	22
318.961	22
319.327	22
319.692	23
320.058	24
320.424	24
320.789	25
321.155	25
321.520	26
321.886	26
322.251	26
322.616	26
322.982	27
323.347	28
323.712	29
324.078	30
324.443	31
324.808	31
325.173	32
325.539	33
325.904	34
326.269	35
326.634	35
326.999	37
327.364	37
327.729	38
328.094	39
328.459	40
328.823	41
329.188	41
329.553	43
329.918	43
330.283	45
330.647	45
331.012	46
331.377	46
331.741	47
332.106	48
332.470	49
332.835	50
333.199	51
333.564	52
333.928	53
334.293	54
334.657	55
335.021	56
335.386	57
335.750	59
336.114	60
336.478	61
336.843	62
337.207	63
337.571	64
337.935	65
338.299	66
338.663	68
339.027	69
339.391	70
339.755	71
340.119	72
340.483	73
340.846	74
341.210	76
341.574	77
341.938	78
342.301	79
342.665	80
343.029	81
343.392	82
343.756	83
344.119	84
344.483	85
344.846	87
345.210	88
345.573	89
345.937	90
346.300	91
346.663	92
347.027	93
347.390	94
347.753	95
348.116	97
348.479	97
348.843	98
349.206	100
349.569	101
349.932	102
350.295	102
350.658	103
351.021	104
351.383	105
351.746	105
352.109	106
352.472	107
352.835	108
353.197	108
353.560	109
353.923	110
354.285	111
354.648	111
355.011	112
355.373	112
355.736	113
356.098	114
356.461	115
356.823	115
357.185	115
357.548	116
357.910	116
358.272	117
358.635	118
358.997	119
359.359	119
359.721	120
360.083	120
360.445	120
360.807	121
361.169	121
361.531	122
361.893	122
362.255	123
362.617	123
362.979	123
363.341	124
363.703	125
364.064	125
364.426	126
364.788	126
365.149	127
365.511	127
365.873	127
366.234	128
366.596	128
366.957	128
367.319	128
367.680	129
368.042	129
368.403	129
368.764	129
369.126	130
369.487	130
369.848	130
370.209	130
370.570	130
370.931	130
371.293	130
371.654	130
372.015	130
372.376	130
372.737	130
373.098	130
373.458	130
373.819	130
374.180	130
374.541	130
374.902	130
375.263	131
375.623	131
375.984	131
376.345	132
376.705	132
377.066	132
377.426	132
377.787	133
378.147	133
378.508	133
378.868	133
379.228	134
379.589	134
379.949	135
380.309	134
380.670	135
381.030	135
381.390	135
381.750	136
382.110	136
382.470	136
382.830	136
383.190	136
383.550	136
383.910	136
384.270	136
384.630	136
384.990	136
385.350	136
385.709	137
386.069	137
386.429	137
386.788	137
387.148	137
387.508	136
387.867	137
388.227	137
388.586	137
388.946	138
389.305	138
389.665	138
390.024	139
390.383	139
390.743	140
391.102	140
391.461	140
391.820	140
392.179	141
392.539	141
392.898	141
393.257	141
393.616	141
393.975	141
394.334	142
394.693	143
395.051	144
395.410	144
395.769	145
396.128	144
396.487	145
396.845	145
397.204	145
397.563	145
397.921	145
398.280	145
398.638	145
398.997	145
399.355	145
399.714	145
400.072	145
400.431	146
400.789	146
401.147	146
401.506	147
401.864	147
402.222	147
402.580	147
402.938	147
403.297	147
403.655	147
404.013	147
404.371	146
404.729	146
405.087	146
405.444	146
405.802	146
406.160	146
406.518	146
406.876	146
407.233	147
407.591	147
407.949	146
408.306	146
408.664	146
409.022	145
409.379	145
409.737	145
410.094	146
410.451	146
410.809	146
411.166	146
411.523	146
411.881	146
412.238	147
412.595	147
412.952	147
413.310	147
413.667	147
414.024	146
414.381	147
414.738	147
415.095	147
415.452	148
415.809	148
416.165	148
416.522	148
416.879	149
417.236	149
417.593	150
417.949	152
418.306	152
418.663	153
419.019	155
419.376	156
419.732	158
420.089	159
420.445	160
420.802	161
421.158	162
421.514	163
421.871	164
422.227	164
422.583	165
422.939	166
423.295	166
423.652	167
424.008	167
424.364	168
424.720	168
425.076	168
425.432	168
425.788	168
426.143	169
426.499	169
426.855	170
427.211	170
427.567	171
427.922	172
428.278	173
428.634	173
428.989	173
429.345	174
429.700	174
430.056	175
430.411	175
430.767	176
431.122	177
431.478	178
431.833	178
432.188	179
432.543	179
432.899	180
433.254	180
433.609	180
433.964	179
434.319	180
434.674	180
435.029	180
435.384	180
435.739	180
436.094	181
436.449	182
436.804	183
437.158	185
437.513	186
437.868	188
438.223	190
438.577	192
438.932	194
439.287	196
439.641	199
439.996	201
440.350	203
440.704	205
441.059	208
441.413	211
441.768	213
442.122	215
442.476	218
442.830	220
443.185	222
443.539	224
443.893	226
444.247	228
444.601	230
444.955	231
445.309	232
445.663	233
446.017	233
446.371	234
446.724	235
447.078	235
447.432	235
447.786	236
448.139	236
448.493	236
448.847	236
449.200	235
449.554	235
449.907	235
450.261	235
450.614	235
450.968	235
451.321	236
451.674	236
452.027	236
452.381	236
452.734	237
453.087	237
453.440	239
453.793	240
454.146	241
454.499	242
454.852	245
455.205	247
455.558	250
455.911	252
456.264	255
456.617	257
456.970	260
457.322	263
457.675	264
458.028	266
458.380	268
458.733	270
459.086	271
459.438	273
459.791	275
460.143	278
460.496	281
460.848	284
461.200	288
461.553	292
461.905	296
462.257	299
462.609	302
462.961	305
463.314	308
463.666	310
464.018	312
464.370	314
464.722	316
465.074	319
465.426	321
465.777	324
466.129	326
466.481	327
466.833	329
467.184	329
467.536	331
467.888	330
468.239	331
468.591	330
468.943	331
469.294	332
469.646	333
469.997	335
470.348	338
470.700	340
471.051	344
471.402	348
471.754	353
472.105	359
472.456	364
472.807	371
473.158	377
473.509	384
473.860	392
474.211	400
474.562	409
474.913	417
475.264	427
475.615	436
475.966	445
476.316	454
476.667	462
477.018	472
477.368	481
477.719	491
478.070	500
478.420	510
478.771	518
479.121	527
479.472	535
479.822	544
480.172	554
480.523	565
480.873	580
481.223	606
481.573	643
481.924	690
482.274	742
482.624	797
482.974	852
483.324	900
483.674	936
484.024	960
484.374	977
484.724	988
485.073	995
485.423	1002
485.773	1009
486.123	1015
486.472	1022
486.822	1028
487.172	1033
487.521	1038
487.871	1040
488.220	1038
488.570	1026
488.919	1002
489.268	968
489.618	928
489.967	886
490.316	844
490.666	807
491.015	782
491.364	768
491.713	761
492.062	761
492.411	763
492.760	766
493.109	770
493.458	774
493.807	778
494.156	781
494.505	784
494.853	787
495.202	791
495.551	797
495.900	802
496.248	808
496.597	814
496.945	819
497.294	824
497.642	830
497.991	836
498.339	844
498.688	852
499.036	859
499.384	866
499.732	872
500.081	878
500.429	883
500.777	888
501.125	892
501.473	896
501.821	901
502.169	906
502.517	910
502.865	913
503.213	915
503.561	917
503.908	918
504.256	919
504.604	920
504.952	920
505.299	920
505.647	919
505.994	918
506.342	916
506.689	914
507.037	913
507.384	913
507.732	912
508.079	912
508.426	913
508.774	914
509.121	913
509.468	913
509.815	912
510.162	912
510.509	911
510.856	910
511.203	909
511.550	908
511.897	908
512.244	907
512.591	906
512.938	905
513.284	905
513.631	904
513.978	902
514.324	900
514.671	898
515.018	896
515.364	894
515.711	893
516.057	892
516.403	890
516.750	889
517.096	886
517.443	883
517.789	881
518.135	878
518.481	876
518.827	874
519.173	872
519.519	870
519.865	869
520.211	867
520.557	865
520.903	864
521.249	863
521.595	863
521.941	863
522.287	863
522.632	862
522.978	861
523.324	861
523.669	861
524.015	862
524.360	865
524.706	869
525.051	873
525.397	878
525.742	883
526.087	889
526.433	894
526.778	898
527.123	902
527.468	905
527.813	908
528.158	911
528.504	915
528.849	920
529.193	927
529.538	934
529.883	944
530.228	955
530.573	967
530.918	980
531.263	993
531.607	1004
531.952	1015
532.296	1023
532.641	1030
532.986	1036
533.330	1042
533.675	1048
534.019	1056
534.363	1066
534.708	1077
535.052	1091
535.396	1105
535.741	1118
536.085	1131
536.429	1142
536.773	1151
537.117	1159
537.461	1165
537.805	1171
538.149	1178
538.493	1186
538.837	1194
539.181	1203
539.524	1214
539.868	1228
540.212	1243
540.556	1259
540.899	1276
541.243	1291
541.586	1303
541.930	1313
542.273	1321
542.617	1327
542.960	1333
543.304	1342
543.647	1353
543.990	1367
544.333	1383
544.677	1399
545.020	1414
545.363	1428
545.706	1438
546.049	1446
546.392	1452
546.735	1454
547.078	1456
547.421	1459
547.764	1462
548.106	1466
548.449	1471
548.792	1480
549.135	1492
549.477	1506
549.820	1520
550.162	1533
550.505	1543
550.847	1551
551.190	1557
551.532	1563
551.875	1568
552.217	1575
552.559	1583
552.901	1593
553.244	1606
553.586	1619
553.928	1633
554.270	1646
554.612	1657
554.954	1666
555.296	1675
555.638	1683
555.980	1692
556.322	1703
556.663	1717
557.005	1736
557.347	1759
557.689	1783
558.030	1806
558.372	1828
558.713	1848
559.055	1868
559.396	1888
559.738	1908
560.079	1931
560.421	1956
560.762	1984
561.103	2015
561.444	2049
561.786	2084
562.127	2121
562.468	2162
562.809	2206
563.150	2255
563.491	2307
563.832	2365
564.173	2431
564.514	2507
564.855	2598
565.195	2709
565.536	2840
565.877	2993
566.218	3166
566.558	3361
566.899	3575
567.239	3805
567.580	4047
567.920	4297
568.261	4548
568.601	4806
568.941	5073
569.282	5348
569.622	5634
569.962	5933
570.302	6253
570.643	6584
570.983	6918
571.323	7241
571.663	7553
572.003	7850
572.343	8129
572.683	8393
573.022	8664
573.362	8951
573.702	9250
574.042	9549
574.381	9837
574.721	10112
575.061	10374
575.400	10615
575.740	10829
576.079	11022
576.419	11216
576.758	11436
577.097	11696
577.437	11980
577.776	12282
578.115	12600
578.454	12920
578.794	13213
579.133	13441
579.472	13600
579.811	13696
580.150	13733
580.489	13728
580.828	13705
581.167	13688
581.505	13684
581.844	13686
582.183	13688
582.522	13700
582.860	13717
583.199	13734
583.538	13730
583.876	13682
584.215	13574
584.553	13402
584.891	13170
585.230	12881
585.568	12562
585.906	12238
586.245	11951
586.583	11706
586.921	11506
587.259	11325
587.597	11139
587.935	10945
588.273	10744
588.611	10558
588.949	10397
589.287	10265
589.625	10165
589.963	10089
590.300	10031
590.638	9977
590.976	9913
591.313	9835
591.651	9761
591.989	9699
592.326	9651
592.664	9610
593.001	9578
593.338	9561
593.676	9557
594.013	9570
594.350	9615
594.687	9685
595.025	9761
595.362	9830
595.699	9882
596.036	9915
596.373	9926
596.710	9912
597.047	9881
597.384	9842
597.720	9799
598.057	9766
598.394	9744
598.731	9735
599.067	9742
599.404	9768
599.741	9816
600.077	9879
600.414	9949
600.750	10022
601.087	10077
601.423	10105
601.759	10109
602.096	10096
602.432	10071
602.768	10029
603.104	9971
603.440	9899
603.776	9821
604.112	9737
604.448	9651
604.784	9560
605.120	9462
605.456	9367
605.792	9268
606.128	9163
606.463	9055
606.799	8947
607.135	8849
607.470	8752
607.806	8655
608.142	8561
608.477	8471
608.812	8384
609.148	8295
609.483	8202
609.819	8106
610.154	8015
610.489	7932
610.824	7859
611.159	7799
611.494	7737
611.830	7683
612.165	7630
612.500	7570
612.834	7499
613.169	7417
613.504	7326
613.839	7225
614.174	7111
614.509	6997
614.843	6883
615.178	6775
615.512	6667
615.847	6562
616.182	6458
616.516	6352
616.850	6240
617.185	6123
617.519	6004
617.853	5876
618.188	5743
618.522	5624
618.856	5523
619.190	5435
619.524	5359
619.858	5299
620.192	5252
620.526	5211
620.860	5168
621.194	5127
621.528	5087
621.862	5046
622.195	4997
622.529	4945
622.863	4890
623.196	4836
623.530	4781
623.864	4725
624.197	4669
624.530	4615
624.864	4567
625.197	4516
625.531	4457
625.864	4386
626.197	4311
626.530	4230
626.863	4138
627.196	4038
627.529	3937
627.862	3839
628.195	3741
628.528	3644
628.861	3552
629.194	3470
629.527	3391
629.860	3313
630.192	3235
630.525	3164
630.858	3097
631.190	3033
631.523	2971
631.855	2915
632.188	2865
632.520	2819
632.852	2775
633.185	2730
633.517	2687
633.849	2647
634.182	2611
634.514	2577
634.846	2546
635.178	2519
635.510	2495
635.842	2473
636.174	2451
636.506	2430
636.837	2409
637.169	2388
637.501	2366
637.833	2342
638.164	2314
638.496	2284
638.828	2249
639.159	2210
639.491	2167
639.822	2124
640.154	2080
640.485	2036
640.816	1994
641.147	1952
641.479	1911
641.810	1872
642.141	1834
642.472	1796
642.803	1759
643.134	1724
643.465	1694
643.796	1669
644.127	1653
644.458	1645
644.789	1646
645.119	1656
645.450	1672
645.781	1690
646.111	1707
646.442	1722
646.773	1733
647.103	1742
647.433	1750
647.764	1758
648.094	1770
648.425	1784
648.755	1801
649.085	1822
649.415	1842
649.745	1863
650.075	1886
650.405	1910
650.735	1968
651.065	2379
651.395	3650
651.725	5769
652.055	8494
652.385	11627
652.715	15068
653.044	18701
653.374	21969
653.704	24480
654.033	26221
654.363	27397
654.692	28163
655.022	28656
655.351	28978
655.680	29177
656.010	29283
656.339	29329
656.668	29341
656.997	29332
657.326	29309
657.655	29246
657.984	28821
658.313	27530
658.642	25384
658.971	22626
659.300	19455
659.629	15978
659.958	12311
660.286	9012
660.615	6475
660.944	4714
661.272	3520
661.601	2737
661.929	2225
662.258	1881
662.586	1656
662.915	1518
663.243	1440
663.571	1395
663.899	1367
664.228	1350
664.556	1338
664.884	1331
665.212	1326
665.540	1322
665.868	1320
666.196	1319
666.524	1318
666.852	1320
667.179	1326
667.507	1336
667.835	1352
668.162	1372
668.490	1397
668.818	1426
669.145	1457
669.473	1487
669.800	1516
670.127	1540
670.455	1560
670.782	1577
671.109	1592
671.436	1605
671.764	1614
672.091	1623
672.418	1630
672.745	1636
673.072	1643
673.399	1651
673.726	1659
674.053	1665
674.379	1667
674.706	1667
675.033	1666
675.359	1663
675.686	1659
676.013	1658
676.339	1658
676.666	1664
676.992	1677
677.318	1694
677.645	1714
677.971	1732
678.297	1749
678.624	1765
678.950	1780
679.276	1794
679.602	1807
679.928	1822
680.254	1839
680.580	1862
680.906	1891
681.232	1928
681.558	1966
681.883	2003
682.209	2038
682.535	2070
682.860	2099
683.186	2123
683.511	2142
683.837	2154
684.162	2164
684.488	2171
684.813	2179
685.138	2187
685.464	2194
685.789	2199
686.114	2205
686.439	2212
686.764	2220
687.089	2226
687.414	2226
687.739	2219
688.064	2205
688.389	2188
688.714	2168
689.039	2145
689.363	2122
689.688	2096
690.013	2072
690.337	2050
690.662	2032
690.986	2016
691.311	2000
691.635	1983
691.959	1968
692.284	1958
692.608	1955
692.932	1959
693.256	1965
693.580	1974
693.904	1985
694.228	1997
694.552	2008
694.876	2013
695.200	2010
695.524	2001
695.848	1988
696.172	1972
696.495	1954
696.819	1937
697.143	1918
697.466	1900
697.790	1884
698.113	1873
698.437	1869
698.760	1868
699.083	1867
699.407	1861
699.730	1852
700.053	1836
700.376	1814
700.699	1784
701.022	1746
701.345	1706
701.668	1669
701.991	1638
702.314	1616
702.637	1607
702.960	1611
703.283	1628
703.605	1659
703.928	1700
704.251	1745
704.573	1790
704.896	1831
705.218	1863
705.540	1889
705.863	1909
706.185	1926
706.507	1940
706.830	1954
707.152	1968
707.474	1984
707.796	2002
708.118	2021
708.440	2039
708.762	2055
709.084	2067
709.406	2074
709.728	2075
710.049	2070
710.371	2061
710.693	2046
711.014	2031
711.336	2016
711.658	2003
711.979	1991
712.301	1980
712.622	1969
712.943	1955
713.265	1938
713.586	1920
713.907	1903
714.228	1888
714.549	1876
714.870	1868
715.191	1864
715.512	1863
715.833	1861
716.154	1855
716.475	1846
716.796	1834
717.117	1816
717.437	1796
717.758	1773
718.078	1749
718.399	1726
718.719	1706
719.040	1688
719.360	1675
719.681	1665
720.001	1659
720.321	1656
720.642	1654
720.962	1656
721.282	1660
721.602	1666
721.922	1672
722.242	1680
722.562	1691
722.882	1704
723.202	1716
723.521	1727
723.841	1738
724.161	1749
724.481	1760
724.800	1772
725.120	1788
725.439	1806
725.759	1828
726.078	1852
726.398	1882
726.717	1918
727.036	1960
727.355	2003
727.675	2045
727.994	2084
728.313	2122
728.632	2155
728.951	2183
729.270	2206
729.589	2228
729.908	2255
730.226	2287
730.545	2322
730.864	2359
731.182	2399
731.501	2439
731.820	2477
732.138	2510
732.457	2539
732.775	2565
733.093	2586
733.412	2598
733.730	2601
734.048	2594
734.367	2582
734.685	2566
735.003	2547
735.321	2530
735.639	2517
735.957	2506
736.275	2497
736.593	2483
736.910	2461
737.228	2431
737.546	2392
737.863	2347
738.181	2298
738.499	2247
738.816	2196
739.134	2147
739.451	2097
739.768	2046
740.086	1998
740.403	1952
740.720	1911
741.038	1872
741.355	1835
741.672	1798
741.989	1759
742.306	1720
742.623	1679
742.940	1639
743.257	1602
743.573	1570
743.890	1544
744.207	1525
744.523	1512
744.840	1503
745.157	1498
745.473	1497
745.790	1503
746.106	1515
746.422	1534
746.739	1556
747.055	1582
747.371	1613
747.687	1644
748.004	1673
748.320	1699
748.636	1722
748.952	1745
749.268	1769
749.584	1791
749.899	1811
750.215	1832
750.531	1855
750.847	1882
751.162	1908
751.478	1934
751.793	1960
752.109	1989
752.424	2020
752.740	2051
753.055	2086
753.370	2129
753.686	2179
754.001	2232
754.316	2288
754.631	2347
754.946	2410
755.261	2476
755.576	2541
755.891	2602
756.206	2663
756.521	2728
756.836	2793
757.150	2856
757.465	2911
757.780	2958
758.094	2998
758.409	3028
758.723	3047
759.038	3055
759.352	3054
759.667	3045
759.981	3030
760.295	3014
760.609	3003
760.923	2996
761.238	2992
761.552	2989
761.866	2985
762.180	2979
762.493	2962
762.807	2931
763.121	2883
763.435	2823
763.749	2758
764.062	2697
764.376	2646
764.689	2612
765.003	2594
765.316	2592
765.630	2601
765.943	2617
766.257	2634
766.570	2649
766.883	2653
767.196	2646
767.509	2628
767.822	2603
768.135	2570
768.448	2535
768.761	2498
769.074	2466
769.387	2442
769.700	2427
770.013	2418
770.325	2411
770.638	2399
770.950	2379
771.263	2347
771.575	2302
771.888	2245
772.200	2178
772.513	2106
772.825	2031
773.137	1954
773.449	1878
773.761	1805
774.074	1737
774.386	1676
774.698	1627
775.010	1586
775.321	1556
775.633	1538
775.945	1527
776.257	1521
776.568	1520
776.880	1525
777.192	1536
777.503	1553
777.815	1575
778.126	1601
778.438	1634
778.749	1668
779.060	1702
779.372	1734
779.683	1765
779.994	1792
780.305	1814
780.616	1829
780.927	1838
781.238	1841
781.549	1836
781.860	1824
782.171	1807
782.481	1788
782.792	1770
783.103	1751
783.413	1731
783.724	1710
784.034	1690
784.345	1671
784.655	1655
784.966	1637
785.276	1619
785.586	1601
785.896	1582
786.207	1564
786.517	1544
786.827	1524
787.137	1506
787.447	1488
787.757	1470
788.066	1454
788.376	1438
788.686	1423
788.996	1406
789.305	1391
789.615	1378
789.925	1371
790.234	1369
790.544	1372
790.853	1379
791.162	1386
791.472	1393
791.781	1395
792.090	1392
792.399	1383
792.708	1370
793.017	1356
793.326	1341
793.635	1328
793.944	1316
794.253	1305
794.562	1298
794.871	1294
795.179	1290
795.488	1286
795.797	1280
796.105	1268
796.414	1249
796.722	1223
797.031	1190
797.339	1151
797.647	1107
797.956	1060
798.264	1018
798.572	982
798.880	955
799.188	935
799.496	921
799.804	910
800.112	902
800.420	896
800.728	889
801.035	879
801.343	869
801.651	861
801.958	860
802.266	863
802.573	870
802.881	880
803.188	892
803.496	905
803.803	918
804.110	930
804.417	941
804.724	950
805.032	959
805.339	966
805.646	970
805.953	973
806.259	974
806.566	972
806.873	968
807.180	963
807.486	958
807.793	952
808.100	942
808.406	926
808.713	905
809.019	881
809.326	856
809.632	832
809.938	810
810.244	790
810.551	773
810.857	759
811.163	747
811.469	734
811.775	720
812.081	706
812.387	692
812.692	681
812.998	674
813.304	668
813.610	662
813.915	658
814.221	655
814.526	652
814.832	649
815.137	646
815.443	642
815.748	635
816.053	627
816.358	619
816.664	610
816.969	603
817.274	597
817.579	592
817.884	590
818.189	589
818.493	589
818.798	588
819.103	584
819.408	578
819.712	571
820.017	564
820.321	556
820.626	549
820.930	542
821.235	538
821.539	536
821.843	536
822.148	538
822.452	538
822.756	538
823.060	536
823.364	533
823.668	528
823.972	522
824.276	517
824.580	513
824.883	510
825.187	510
825.491	510
825.795	510
826.098	511
826.402	510
826.705	508
827.008	504
827.312	499
827.615	491
827.918	481
828.222	469
828.525	458
828.828	447
829.131	435
829.434	424
829.737	414
830.040	407
830.343	400
830.645	394
830.948	388
831.251	382
831.553	377
831.856	373
832.159	369
832.461	364
832.764	359
833.066	354
833.368	350
833.671	347
833.973	345
834.275	343
834.577	340
834.879	338
835.181	334
835.483	330
835.785	326
836.087	320
836.389	313
836.690	306
836.992	298
837.294	289
837.595	279
837.897	270
838.198	260
838.500	252
838.801	244
839.103	237
839.404	231
839.705	226
840.006	222
840.307	219
840.608	216
840.910	215
841.210	214
841.511	212
841.812	210
842.113	208
842.414	205
842.715	202
843.015	197
843.316	193
843.616	189
843.917	185
844.217	182
844.518	180
844.818	178
845.118	177
845.419	176
845.719	175
846.019	174
846.319	173
846.619	172
846.919	172
847.219	171
847.519	170
847.819	169
848.118	169
848.418	171
848.718	176
849.017	184
849.317	197
849.616	211
849.916	228
850.215	246
850.515	266
850.814	285
851.113	303
851.412	319
851.712	333
852.011	347
852.310	359
852.609	370
852.908	379
853.206	388
853.505	396
853.804	403
854.103	409
854.401	413
854.700	415
854.999	413
855.297	408
855.595	399
855.894	387
856.192	373
856.491	357
856.789	339
857.087	322
857.385	305
857.683	290
857.981	276
858.279	263
858.577	251
858.875	241
859.173	233
859.471	227
859.768	221
860.066	217
860.363	212
860.661	209
860.959	207
861.256	204
861.553	201
861.851	197
862.148	193
862.445	189
862.742	186
863.039	183
863.337	180
863.634	179
863.931	177
864.227	176
864.524	176
864.821	176
865.118	175
865.415	174
865.711	171
866.008	168
866.304	165
866.601	162
866.897	159
867.194	156
867.490	155
867.786	154
868.082	154
868.379	155
868.675	155
868.971	155
869.267	155
869.563	155
869.859	155
870.154	154
870.450	153
870.746	152
871.042	152
871.337	152
871.633	152
871.928	153
872.224	154
872.519	155
872.815	156
873.110	157
873.405	157
873.700	157
873.995	156
874.291	156
874.586	157
874.881	158
875.175	160
875.470	162
875.765	165
876.060	168
876.355	172
876.649	175
876.944	178
877.238	181
877.533	184
877.827	186
878.122	187
878.416	188
878.710	187
879.005	187
879.299	186
879.593	185
879.887	185
880.181	184
880.475	183
880.769	181
881.063	179
881.356	177
881.650	175
881.944	172
882.238	144
882.531	138
882.825	136
883.118	137
883.412	142
883.705	135
883.998	141
884.291	148
884.585	146
884.878	154
>>>>>>>>>> END of Data <<<<<<<<<<