Date	2021年06月15日火曜日 05時03分53秒
Spectrometers	USB2+H05879
ダーク	使用
リファレンス	使用
積分時間[msec]	10
平均回数	280
ｽﾑｰｼﾞﾝｸﾞ	10
Electrical Dark	USE
ピクセル数	2048
計測モード	吸光度
保存開始波長[nm]	190.664
保存終了波長[nm]	884.878
保存ﾋﾟｯﾁ波長[nm]	全波長

>>>>>>>>>> Data Start <<<<<<<<<<<<
190.664	0.000000
191.040	0.000000
191.415	0.000000
191.791	-2.626745
192.166	-0.395605
192.542	-0.783138
192.917	0.000000
193.293	-0.220220
193.668	-0.310830
194.044	-1.105099
194.419	0.000000
194.794	-1.337905
195.170	-1.249378
195.545	-1.151609
195.920	-1.017470
196.296	-0.902350
196.671	-0.740589
197.046	-0.596490
197.421	-0.554268
197.796	-0.555933
198.171	-0.521715
198.546	-0.486086
198.922	-0.435343
199.297	-0.418685
199.672	-0.399716
200.047	-0.376934
200.422	-0.346609
200.796	-0.335958
201.171	-0.317578
201.546	-0.318522
201.921	-0.301693
202.296	-0.290359
202.671	-0.265946
203.045	-0.242258
203.420	-0.227799
203.795	-0.213537
204.170	-0.211919
204.544	-0.209902
204.919	-0.204419
205.294	-0.197539
205.668	-0.177456
206.043	-0.151714
206.417	-0.149851
206.792	-0.141592
207.166	-0.132393
207.541	-0.133458
207.915	-0.139515
208.289	-0.123319
208.664	-0.120619
209.038	-0.124477
209.412	-0.104532
209.787	-0.096294
210.161	-0.079932
210.535	-0.078538
210.909	-0.073860
211.284	-0.071601
211.658	-0.074839
212.032	-0.070119
212.406	-0.082779
212.780	-0.076978
213.154	-0.076707
213.528	-0.068553
213.902	-0.080584
214.276	-0.075686
214.650	-0.074516
215.024	-0.073723
215.398	-0.060243
215.772	-0.050740
216.145	-0.051268
216.519	-0.039964
216.893	-0.029064
217.267	-0.031338
217.640	-0.031363
218.014	-0.018594
218.388	-0.014158
218.761	-0.016811
219.135	-0.009350
219.508	-0.013698
219.882	-0.019844
220.256	0.001250
220.629	0.004326
221.003	0.004529
221.376	-0.000993
221.749	-0.003797
222.123	-0.002161
222.496	-0.009935
222.869	-0.005843
223.243	-0.009306
223.616	-0.010853
223.989	-0.016689
224.362	-0.016505
224.736	-0.021863
225.109	-0.021489
225.482	-0.024970
225.855	-0.033340
226.228	-0.032248
226.601	-0.032439
226.974	-0.026498
227.347	-0.007473
227.720	-0.003357
228.093	-0.014001
228.466	-0.015332
228.839	-0.008558
229.212	-0.014021
229.585	-0.017499
229.957	-0.019060
230.330	-0.017135
230.703	-0.006168
231.076	-0.007345
231.448	-0.004725
231.821	-0.004316
232.194	-0.006127
232.566	-0.005423
232.939	-0.001258
233.311	0.003924
233.684	0.004236
234.056	0.003955
234.429	0.013781
234.801	0.008913
235.174	0.006306
235.546	0.009424
235.918	0.003862
236.291	-0.000101
236.663	-0.003618
237.035	-0.000743
237.408	0.010827
237.780	0.014026
238.152	0.024982
238.524	0.009187
238.896	0.014918
239.268	0.011639
239.641	0.010147
240.013	0.009932
240.385	0.015171
240.757	0.007070
241.129	0.006402
241.500	0.002660
241.872	0.005368
242.244	0.004466
242.616	0.002369
242.988	0.000100
243.360	0.004654
243.731	0.017529
244.103	0.023991
244.475	0.020955
244.847	0.022450
245.218	0.020902
245.590	0.033097
245.961	0.029840
246.333	0.034107
246.705	0.026177
247.076	0.032633
247.448	0.032179
247.819	0.033705
248.190	0.039606
248.562	0.041041
248.933	0.044702
249.305	0.046122
249.676	0.047664
250.047	0.045867
250.418	0.045903
250.790	0.044826
251.161	0.040699
251.532	0.033454
251.903	0.028503
252.274	0.038698
252.645	0.048727
253.016	0.047200
253.387	0.036188
253.758	0.036278
254.129	0.040664
254.500	0.047554
254.871	0.050640
255.242	0.051797
255.613	0.054821
255.984	0.045860
256.355	0.056948
256.725	0.053816
257.096	0.059809
257.467	0.063252
257.838	0.071252
258.208	0.073832
258.579	0.080581
258.949	0.081043
259.320	0.091965
259.690	0.092938
260.061	0.098230
260.431	0.095997
260.802	0.098147
261.172	0.107328
261.543	0.107403
261.913	0.106549
262.283	0.105290
262.654	0.095732
263.024	0.099075
263.394	0.100161
263.764	0.101532
264.135	0.096922
264.505	0.107026
264.875	0.110961
265.245	0.114884
265.615	0.114714
265.985	0.118243
266.355	0.119161
266.725	0.120189
267.095	0.115322
267.465	0.115975
267.835	0.104089
268.205	0.096291
268.575	0.101037
268.944	0.099926
269.314	0.101883
269.684	0.106105
270.054	0.100713
270.423	0.107451
270.793	0.108973
271.163	0.110709
271.532	0.114414
271.902	0.116487
272.271	0.118430
272.641	0.114261
273.010	0.104804
273.380	0.098871
273.749	0.091355
274.119	0.090404
274.488	0.095255
274.857	0.095000
275.227	0.097012
275.596	0.104559
275.965	0.110668
276.335	0.112557
276.704	0.102978
277.073	0.103834
277.442	0.101810
277.811	0.114123
278.180	0.122293
278.549	0.122515
278.918	0.116239
279.287	0.116405
279.656	0.119840
280.025	0.114363
280.394	0.113411
280.763	0.122827
281.132	0.127403
281.501	0.130315
281.869	0.125978
282.238	0.128448
282.607	0.127448
282.976	0.132632
283.344	0.136616
283.713	0.134987
284.081	0.128640
284.450	0.143919
284.819	0.139936
285.187	0.145666
285.556	0.142547
285.924	0.134307
286.292	0.129647
286.661	0.126218
287.029	0.126847
287.398	0.129528
287.766	0.129243
288.134	0.127435
288.502	0.119212
288.871	0.123466
289.239	0.128082
289.607	0.133829
289.975	0.130946
290.343	0.138133
290.711	0.136592
291.079	0.132088
291.447	0.136836
291.815	0.145029
292.183	0.145494
292.551	0.150253
292.919	0.151904
293.287	0.156746
293.655	0.160596
294.022	0.161989
294.390	0.169615
294.758	0.167874
295.126	0.162685
295.493	0.161787
295.861	0.170505
296.229	0.177402
296.596	0.178132
296.964	0.179641
297.331	0.174564
297.699	0.177776
298.066	0.170748
298.434	0.177722
298.801	0.178645
299.168	0.175496
299.536	0.173011
299.903	0.167815
300.270	0.166802
300.638	0.168575
301.005	0.174529
301.372	0.182971
301.739	0.194169
302.106	0.203262
302.473	0.215525
302.840	0.226036
303.207	0.246761
303.574	0.262555
303.941	0.276480
304.308	0.291747
304.675	0.304613
305.042	0.321273
305.409	0.338808
305.776	0.354302
306.143	0.372923
306.509	0.391635
306.876	0.417639
307.243	0.442991
307.610	0.468418
307.976	0.491471
308.343	0.521360
308.709	0.547626
309.076	0.576063
309.442	0.600891
309.809	0.626245
310.175	0.653601
310.542	0.679971
310.908	0.704683
311.275	0.722792
311.641	0.746341
312.007	0.777239
312.373	0.803319
312.740	0.838342
313.106	0.870825
313.472	0.905583
313.838	0.930363
314.204	0.955615
314.570	0.977734
314.936	1.002526
315.302	1.029903
315.668	1.059774
316.034	1.081074
316.400	1.110785
316.766	1.126745
317.132	1.158037
317.498	1.180044
317.864	1.194963
318.230	1.212287
318.595	1.232394
318.961	1.251587
319.327	1.275391
319.692	1.282579
320.058	1.295023
320.424	1.307000
320.789	1.318466
321.155	1.334280
321.520	1.349409
321.886	1.372721
322.251	1.386221
322.616	1.398082
322.982	1.408767
323.347	1.416885
323.712	1.433156
324.078	1.437709
324.443	1.448730
324.808	1.450491
325.173	1.462637
325.539	1.473695
325.904	1.481500
326.269	1.486183
326.634	1.495503
326.999	1.501598
327.364	1.507626
327.729	1.515003
328.094	1.518378
328.459	1.523367
328.823	1.526590
329.188	1.532264
329.553	1.532373
329.918	1.539443
330.283	1.542829
330.647	1.548419
331.012	1.552913
331.377	1.552653
331.741	1.555587
332.106	1.559238
332.470	1.563737
332.835	1.564077
333.199	1.565983
333.564	1.569907
333.928	1.573947
334.293	1.576477
334.657	1.576624
335.021	1.580804
335.386	1.583222
335.750	1.585550
336.114	1.586629
336.478	1.588545
336.843	1.589570
337.207	1.591335
337.571	1.593171
337.935	1.595333
338.299	1.593541
338.663	1.592936
339.027	1.595260
339.391	1.597213
339.755	1.598946
340.119	1.599399
340.483	1.599074
340.846	1.601092
341.210	1.600604
341.574	1.600375
341.938	1.599432
342.301	1.599354
342.665	1.598401
343.029	1.598793
343.392	1.599214
343.756	1.599916
344.119	1.600077
344.483	1.600563
344.846	1.600073
345.210	1.599124
345.573	1.597304
345.937	1.598112
346.300	1.599217
346.663	1.598539
347.027	1.598564
347.390	1.597261
347.753	1.596910
348.116	1.598850
348.479	1.599196
348.843	1.600045
349.206	1.598902
349.569	1.599037
349.932	1.600935
350.295	1.601551
350.658	1.602634
351.021	1.603813
351.383	1.603760
351.746	1.603725
352.109	1.604091
352.472	1.603554
352.835	1.604350
353.197	1.606667
353.560	1.608201
353.923	1.608514
354.285	1.608523
354.648	1.608915
355.011	1.609026
355.373	1.610643
355.736	1.611547
356.098	1.610993
356.461	1.611247
356.823	1.612544
357.185	1.613836
357.548	1.613461
357.910	1.613115
358.272	1.611977
358.635	1.610480
358.997	1.609900
359.359	1.612219
359.721	1.611386
360.083	1.613838
360.445	1.615477
360.807	1.615277
361.169	1.615283
361.531	1.615543
361.893	1.615737
362.255	1.615775
362.617	1.617236
362.979	1.616679
363.341	1.615302
363.703	1.615596
364.064	1.616463
364.426	1.616991
364.788	1.616799
365.149	1.617408
365.511	1.618267
365.873	1.618786
366.234	1.620635
366.596	1.622259
366.957	1.621839
367.319	1.623732
367.680	1.623006
368.042	1.620284
368.403	1.620844
368.764	1.621992
369.126	1.621543
369.487	1.622843
369.848	1.623528
370.209	1.624882
370.570	1.625819
370.931	1.626531
371.293	1.626759
371.654	1.626206
372.015	1.627439
372.376	1.628790
372.737	1.628826
373.098	1.628936
373.458	1.629381
373.819	1.630515
374.180	1.631619
374.541	1.632671
374.902	1.632802
375.263	1.634587
375.623	1.635646
375.984	1.637099
376.345	1.636438
376.705	1.638833
377.066	1.640365
377.426	1.640841
377.787	1.640940
378.147	1.641915
378.508	1.641621
378.868	1.642281
379.228	1.643204
379.589	1.642491
379.949	1.642228
380.309	1.642894
380.670	1.644578
381.030	1.645743
381.390	1.646231
381.750	1.646178
382.110	1.645972
382.470	1.646591
382.830	1.646992
383.190	1.648235
383.550	1.648596
383.910	1.649595
384.270	1.649090
384.630	1.649471
384.990	1.650039
385.350	1.650328
385.709	1.650921
386.069	1.652526
386.429	1.652377
386.788	1.653644
387.148	1.654689
387.508	1.655804
387.867	1.656256
388.227	1.656248
388.586	1.656262
388.946	1.656925
389.305	1.657921
389.665	1.658733
390.024	1.658987
390.383	1.659272
390.743	1.659957
391.102	1.659773
391.461	1.660652
391.820	1.662293
392.179	1.661365
392.539	1.662401
392.898	1.663472
393.257	1.663790
393.616	1.665279
393.975	1.667574
394.334	1.667869
394.693	1.668788
395.051	1.670361
395.410	1.671705
395.769	1.672545
396.128	1.674705
396.487	1.674853
396.845	1.674795
397.204	1.674907
397.563	1.675219
397.921	1.674989
398.280	1.675437
398.638	1.675588
398.997	1.675072
399.355	1.673835
399.714	1.674401
400.072	1.673677
400.431	1.672723
400.789	1.672715
401.147	1.673000
401.506	1.672074
401.864	1.671685
402.222	1.670594
402.580	1.668398
402.938	1.667801
403.297	1.667014
403.655	1.666121
404.013	1.665871
404.371	1.665597
404.729	1.665095
405.087	1.664667
405.444	1.664398
405.802	1.663732
406.160	1.663945
406.518	1.663922
406.876	1.663857
407.233	1.664307
407.591	1.664816
407.949	1.664485
408.306	1.664209
408.664	1.662668
409.022	1.663301
409.379	1.663505
409.737	1.663620
410.094	1.664121
410.451	1.664329
410.809	1.663901
411.166	1.663660
411.523	1.664352
411.881	1.664650
412.238	1.664414
412.595	1.663563
412.952	1.663707
413.310	1.663584
413.667	1.663304
414.024	1.663795
414.381	1.664418
414.738	1.663290
415.095	1.662145
415.452	1.662052
415.809	1.661433
416.165	1.661737
416.522	1.660916
416.879	1.659901
417.236	1.659250
417.593	1.657996
417.949	1.656614
418.306	1.656567
418.663	1.656928
419.019	1.655651
419.376	1.654538
419.732	1.654263
420.089	1.654656
420.445	1.654051
420.802	1.654167
421.158	1.653187
421.514	1.652458
421.871	1.651703
422.227	1.650721
422.583	1.649949
422.939	1.648790
423.295	1.648084
423.652	1.647182
424.008	1.646304
424.364	1.645702
424.720	1.644826
425.076	1.645276
425.432	1.645237
425.788	1.645089
426.143	1.643005
426.499	1.642380
426.855	1.642942
427.211	1.641877
427.567	1.640694
427.922	1.640335
428.278	1.637923
428.634	1.636851
428.989	1.635200
429.345	1.633507
429.700	1.632729
430.056	1.632704
430.411	1.633202
430.767	1.632699
431.122	1.630822
431.478	1.629422
431.833	1.628215
432.188	1.627000
432.543	1.625810
432.899	1.623796
433.254	1.621402
433.609	1.620144
433.964	1.618283
434.319	1.615438
434.674	1.613428
435.029	1.611857
435.384	1.609736
435.739	1.608964
436.094	1.607732
436.449	1.606378
436.804	1.605376
437.158	1.603948
437.513	1.602162
437.868	1.599441
438.223	1.597458
438.577	1.595837
438.932	1.594901
439.287	1.593549
439.641	1.592016
439.996	1.589560
440.350	1.588037
440.704	1.587050
441.059	1.585527
441.413	1.583556
441.768	1.581568
442.122	1.580235
442.476	1.578312
442.830	1.576680
443.185	1.575198
443.539	1.573220
443.893	1.571070
444.247	1.568160
444.601	1.566462
444.955	1.563693
445.309	1.561316
445.663	1.558432
446.017	1.556453
446.371	1.553787
446.724	1.550656
447.078	1.547782
447.432	1.545796
447.786	1.543321
448.139	1.539851
448.493	1.536598
448.847	1.533422
449.200	1.530085
449.554	1.526976
449.907	1.524280
450.261	1.520935
450.614	1.517316
450.968	1.514118
451.321	1.510947
451.674	1.508276
452.027	1.504446
452.381	1.500845
452.734	1.497551
453.087	1.494792
453.440	1.491281
453.793	1.487531
454.146	1.484141
454.499	1.480914
454.852	1.476451
455.205	1.472899
455.558	1.469519
455.911	1.466166
456.264	1.462575
456.617	1.459623
456.970	1.456698
457.322	1.453018
457.675	1.449907
458.028	1.446783
458.380	1.443487
458.733	1.440559
459.086	1.437801
459.438	1.434604
459.791	1.431701
460.143	1.428558
460.496	1.425288
460.848	1.422056
461.200	1.419176
461.553	1.416137
461.905	1.413340
462.257	1.410572
462.609	1.407288
462.961	1.404384
463.314	1.401377
463.666	1.398405
464.018	1.395048
464.370	1.391582
464.722	1.388695
465.074	1.384861
465.426	1.382050
465.777	1.378985
466.129	1.375806
466.481	1.372602
466.833	1.369869
467.184	1.366942
467.536	1.363396
467.888	1.360436
468.239	1.357282
468.591	1.353778
468.943	1.350043
469.294	1.346471
469.646	1.342459
469.997	1.338403
470.348	1.334755
470.700	1.331450
471.051	1.328582
471.402	1.325817
471.754	1.323049
472.105	1.319954
472.456	1.317631
472.807	1.314907
473.158	1.312389
473.509	1.309640
473.860	1.306811
474.211	1.304165
474.562	1.301930
474.913	1.299406
475.264	1.296489
475.615	1.294055
475.966	1.291607
476.316	1.289102
476.667	1.286360
477.018	1.284246
477.368	1.282105
477.719	1.279485
478.070	1.276657
478.420	1.273929
478.771	1.271433
479.121	1.268968
479.472	1.266598
479.822	1.264163
480.172	1.261743
480.523	1.259076
480.873	1.256506
481.223	1.253427
481.573	1.250286
481.924	1.247324
482.274	1.244755
482.624	1.242354
482.974	1.240142
483.324	1.238177
483.674	1.236475
484.024	1.234875
484.374	1.233327
484.724	1.231767
485.073	1.230185
485.423	1.228775
485.773	1.227216
486.123	1.225486
486.472	1.223790
486.822	1.222143
487.172	1.220596
487.521	1.218806
487.871	1.217265
488.220	1.215500
488.570	1.213819
488.919	1.211642
489.268	1.208921
489.618	1.205829
489.967	1.202313
490.316	1.198401
490.666	1.194454
491.015	1.190707
491.364	1.187062
491.713	1.183812
492.062	1.180898
492.411	1.178214
492.760	1.175559
493.109	1.173014
493.458	1.170646
493.807	1.168135
494.156	1.165523
494.505	1.162660
494.853	1.160246
495.202	1.157528
495.551	1.155008
495.900	1.152308
496.248	1.149673
496.597	1.147051
496.945	1.144493
497.294	1.142030
497.642	1.139506
497.991	1.136793
498.339	1.134111
498.688	1.131712
499.036	1.129337
499.384	1.126798
499.732	1.124384
500.081	1.121844
500.429	1.119124
500.777	1.116577
501.125	1.114194
501.473	1.111884
501.821	1.109564
502.169	1.107120
502.517	1.104816
502.865	1.102447
503.213	1.100137
503.561	1.097985
503.908	1.095781
504.256	1.093526
504.604	1.091312
504.952	1.089019
505.299	1.086665
505.647	1.084339
505.994	1.082074
506.342	1.079760
506.689	1.077440
507.037	1.075223
507.384	1.072920
507.732	1.070825
508.079	1.068665
508.426	1.066355
508.774	1.064015
509.121	1.061841
509.468	1.059807
509.815	1.057807
510.162	1.055729
510.509	1.053609
510.856	1.051516
511.203	1.049602
511.550	1.047666
511.897	1.045602
512.244	1.043550
512.591	1.041494
512.938	1.039753
513.284	1.037711
513.631	1.035673
513.978	1.033640
514.324	1.031421
514.671	1.029504
515.018	1.027467
515.364	1.025409
515.711	1.023560
516.057	1.021531
516.403	1.019588
516.750	1.017547
517.096	1.015664
517.443	1.013742
517.789	1.012082
518.135	1.010214
518.481	1.008327
518.827	1.006619
519.173	1.004663
519.519	1.002839
519.865	1.001040
520.211	0.999222
520.557	0.997287
520.903	0.995276
521.249	0.993487
521.595	0.991695
521.941	0.989658
522.287	0.987654
522.632	0.985683
522.978	0.983787
523.324	0.982095
523.669	0.980338
524.015	0.978397
524.360	0.976262
524.706	0.974340
525.051	0.972296
525.397	0.970418
525.742	0.968433
526.087	0.966552
526.433	0.964807
526.778	0.963230
527.123	0.961664
527.468	0.959788
527.813	0.958240
528.158	0.956606
528.504	0.954693
528.849	0.952736
529.193	0.951031
529.538	0.949358
529.883	0.947545
530.228	0.945437
530.573	0.943532
530.918	0.941584
531.263	0.939786
531.607	0.937939
531.952	0.936172
532.296	0.934245
532.641	0.932456
532.986	0.930581
533.330	0.928541
533.675	0.926796
534.019	0.924740
534.363	0.922579
534.708	0.920458
535.052	0.918518
535.396	0.916465
535.741	0.914713
536.085	0.912693
536.429	0.910488
536.773	0.908321
537.117	0.906112
537.461	0.903972
537.805	0.901579
538.149	0.899165
538.493	0.896665
538.837	0.894329
539.181	0.891803
539.524	0.889293
539.868	0.886773
540.212	0.884330
540.556	0.881985
540.899	0.879425
541.243	0.877006
541.586	0.874525
541.930	0.872001
542.273	0.869203
542.617	0.866615
542.960	0.863792
543.304	0.861074
543.647	0.858308
543.990	0.855482
544.333	0.852614
544.677	0.849813
545.020	0.847108
545.363	0.844271
545.706	0.841480
546.049	0.838667
546.392	0.835974
546.735	0.833172
547.078	0.830265
547.421	0.827242
547.764	0.824043
548.106	0.820849
548.449	0.817431
548.792	0.814262
549.135	0.811042
549.477	0.807884
549.820	0.804730
550.162	0.801556
550.505	0.798273
550.847	0.794877
551.190	0.791452
551.532	0.787876
551.875	0.783993
552.217	0.780032
552.559	0.776261
552.901	0.772589
553.244	0.768787
553.586	0.765128
553.928	0.761680
554.270	0.758144
554.612	0.754725
554.954	0.751370
555.296	0.747786
555.638	0.744116
555.980	0.740180
556.322	0.736128
556.663	0.731944
557.005	0.727574
557.347	0.723500
557.689	0.719416
558.030	0.715465
558.372	0.711413
558.713	0.707381
559.055	0.703510
559.396	0.699447
559.738	0.695263
560.079	0.691019
560.421	0.686998
560.762	0.682941
561.103	0.678798
561.444	0.674860
561.786	0.670985
562.127	0.667064
562.468	0.663127
562.809	0.659193
563.150	0.655156
563.491	0.650985
563.832	0.646690
564.173	0.642316
564.514	0.637612
564.855	0.632887
565.195	0.628063
565.536	0.623211
565.877	0.618538
566.218	0.613891
566.558	0.609425
566.899	0.605150
567.239	0.601032
567.580	0.597176
567.920	0.593565
568.261	0.590234
568.601	0.586996
568.941	0.583899
569.282	0.580953
569.622	0.578054
569.962	0.575157
570.302	0.572319
570.643	0.569561
570.983	0.566898
571.323	0.564339
571.663	0.561811
572.003	0.559313
572.343	0.556804
572.683	0.554207
573.022	0.551450
573.362	0.548599
573.702	0.545703
574.042	0.542898
574.381	0.540105
574.721	0.537346
575.061	0.534702
575.400	0.532198
575.740	0.529718
576.079	0.527271
576.419	0.524724
576.758	0.522128
577.097	0.519412
577.437	0.516563
577.776	0.513711
578.115	0.510899
578.454	0.508227
578.794	0.505810
579.133	0.503611
579.472	0.501541
579.811	0.499585
580.150	0.497675
580.489	0.495739
580.828	0.493690
581.167	0.491542
581.505	0.489424
581.844	0.487332
582.183	0.485194
582.522	0.483098
582.860	0.481105
583.199	0.479216
583.538	0.477406
583.876	0.475615
584.215	0.473822
584.553	0.472043
584.891	0.470234
585.230	0.468356
585.568	0.466395
585.906	0.464352
586.245	0.462377
586.583	0.460516
586.921	0.458853
587.259	0.457344
587.597	0.455863
587.935	0.454321
588.273	0.452690
588.611	0.450845
588.949	0.448920
589.287	0.446960
589.625	0.445005
589.963	0.443118
590.300	0.441269
590.638	0.439546
590.976	0.437804
591.313	0.436062
591.651	0.434279
591.989	0.432506
592.326	0.430895
592.664	0.429395
593.001	0.427971
593.338	0.426628
593.676	0.425414
594.013	0.424204
594.350	0.423029
594.687	0.421910
595.025	0.420890
595.362	0.419807
595.699	0.418704
596.036	0.417505
596.373	0.416344
596.710	0.415099
597.047	0.413826
597.384	0.412572
597.720	0.411294
598.057	0.410037
598.394	0.408787
598.731	0.407573
599.067	0.406374
599.404	0.405152
599.741	0.403997
600.077	0.402925
600.414	0.401882
600.750	0.400952
601.087	0.400053
601.423	0.399118
601.759	0.398182
602.096	0.397194
602.432	0.396242
602.768	0.395279
603.104	0.394318
603.440	0.393339
603.776	0.392413
604.112	0.391501
604.448	0.390612
604.784	0.389760
605.120	0.388980
605.456	0.388228
605.792	0.387461
606.128	0.386703
606.463	0.385949
606.799	0.385122
607.135	0.384295
607.470	0.383547
607.806	0.382720
608.142	0.381908
608.477	0.381109
608.812	0.380314
609.148	0.379555
609.483	0.378769
609.819	0.378034
610.154	0.377239
610.489	0.376462
610.824	0.375714
611.159	0.375011
611.494	0.374261
611.830	0.373598
612.165	0.372972
612.500	0.372373
612.834	0.371812
613.169	0.371253
613.504	0.370591
613.839	0.369979
614.174	0.369342
614.509	0.368678
614.843	0.368073
615.178	0.367495
615.512	0.366981
615.847	0.366482
616.182	0.366021
616.516	0.365559
616.850	0.365034
617.185	0.364583
617.519	0.364039
617.853	0.363525
618.188	0.362916
618.522	0.362335
618.856	0.361711
619.190	0.361045
619.524	0.360431
619.858	0.359837
620.192	0.359245
620.526	0.358765
620.860	0.358307
621.194	0.357832
621.528	0.357313
621.862	0.356781
622.195	0.356312
622.529	0.355722
622.863	0.355181
623.196	0.354631
623.530	0.354125
623.864	0.353636
624.197	0.353166
624.530	0.352716
624.864	0.352292
625.197	0.351875
625.531	0.351458
625.864	0.351019
626.197	0.350532
626.530	0.350136
626.863	0.349622
627.196	0.349112
627.529	0.348591
627.862	0.348037
628.195	0.347460
628.528	0.346941
628.861	0.346386
629.194	0.345890
629.527	0.345460
629.860	0.345045
630.192	0.344583
630.525	0.344016
630.858	0.343472
631.190	0.342937
631.523	0.342389
631.855	0.341743
632.188	0.341228
632.520	0.340674
632.852	0.340135
633.185	0.339644
633.517	0.338992
633.849	0.338484
634.182	0.338095
634.514	0.337677
634.846	0.337301
635.178	0.337122
635.510	0.336738
635.842	0.336474
636.174	0.336071
636.506	0.335765
636.837	0.335316
637.169	0.334884
637.501	0.334577
637.833	0.334282
638.164	0.333944
638.496	0.333537
638.828	0.333060
639.159	0.332550
639.491	0.332122
639.822	0.331537
640.154	0.330941
640.485	0.330310
640.816	0.329653
641.147	0.329074
641.479	0.328400
641.810	0.327737
642.141	0.327084
642.472	0.326533
642.803	0.325889
643.134	0.325358
643.465	0.324807
643.796	0.324316
644.127	0.323914
644.458	0.323565
644.789	0.323266
645.119	0.323059
645.450	0.323042
645.781	0.323167
646.111	0.323319
646.442	0.323317
646.773	0.323348
647.103	0.323265
647.433	0.323142
647.764	0.323028
648.094	0.322743
648.425	0.322700
648.755	0.322648
649.085	0.322462
649.415	0.322421
649.745	0.322451
650.075	0.322446
650.405	0.322265
650.735	0.320592
651.065	0.311947
651.395	0.305231
651.725	0.290845
652.055	0.250176
652.385	0.211847
652.715	0.179346
653.044	0.152898
653.374	0.139902
653.704	0.142660
654.033	0.157275
654.363	0.165905
654.692	0.170823
655.022	0.173683
655.351	0.175410
655.680	0.176414
656.010	0.176944
656.339	0.177157
656.668	0.177188
656.997	0.177111
657.326	0.176971
657.655	0.176743
657.984	0.175278
658.313	0.169175
658.642	0.160350
658.971	0.161324
659.300	0.171354
659.629	0.192475
659.958	0.229360
660.286	0.274767
660.615	0.308947
660.944	0.306543
661.272	0.304128
661.601	0.303712
661.929	0.304803
662.258	0.306671
662.586	0.308579
662.915	0.309802
663.243	0.310355
663.571	0.310261
663.899	0.310182
664.228	0.309927
664.556	0.309650
664.884	0.309413
665.212	0.309400
665.540	0.309130
665.868	0.308898
666.196	0.308594
666.524	0.308480
666.852	0.308408
667.179	0.308185
667.507	0.307991
667.835	0.307930
668.162	0.307679
668.490	0.307446
668.818	0.307359
669.145	0.307109
669.473	0.307096
669.800	0.307105
670.127	0.307045
670.455	0.307076
670.782	0.306959
671.109	0.306887
671.436	0.306850
671.764	0.306856
672.091	0.306759
672.418	0.306735
672.745	0.306597
673.072	0.306589
673.399	0.306465
673.726	0.306273
674.053	0.306147
674.379	0.305979
674.706	0.305802
675.033	0.305489
675.359	0.305269
675.686	0.304982
676.013	0.304838
676.339	0.304587
676.666	0.304318
676.992	0.304143
677.318	0.304072
677.645	0.304006
677.971	0.303793
678.297	0.303734
678.624	0.303505
678.950	0.303218
679.276	0.303001
679.602	0.302775
679.928	0.302482
680.254	0.302183
680.580	0.301916
680.906	0.301856
681.232	0.301777
681.558	0.301804
681.883	0.301875
682.209	0.302002
682.535	0.302022
682.860	0.302031
683.186	0.301938
683.511	0.301769
683.837	0.301617
684.162	0.301384
684.488	0.301124
684.813	0.301037
685.138	0.300792
685.464	0.300592
685.789	0.300432
686.114	0.300291
686.439	0.300189
686.764	0.300095
687.089	0.300025
687.414	0.299970
687.739	0.299849
688.064	0.299699
688.389	0.299482
688.714	0.299189
689.039	0.298785
689.363	0.298539
689.688	0.298205
690.013	0.297897
690.337	0.297703
690.662	0.297570
690.986	0.297416
691.311	0.297277
691.635	0.297086
691.959	0.296945
692.284	0.296794
692.608	0.296603
692.932	0.296458
693.256	0.296364
693.580	0.296319
693.904	0.296259
694.228	0.296194
694.552	0.296162
694.876	0.296193
695.200	0.295923
695.524	0.295714
695.848	0.295452
696.172	0.295080
696.495	0.294748
696.819	0.294539
697.143	0.294193
697.466	0.293813
697.790	0.293435
698.113	0.293202
698.437	0.292924
698.760	0.292721
699.083	0.292568
699.407	0.292534
699.730	0.292430
700.053	0.292288
700.376	0.292059
700.699	0.291723
701.022	0.291373
701.345	0.290725
701.668	0.289865
701.991	0.289342
702.314	0.288705
702.637	0.288208
702.960	0.287830
703.283	0.287580
703.605	0.287234
703.928	0.287203
704.251	0.287278
704.573	0.287320
704.896	0.287242
705.218	0.287202
705.540	0.287007
705.863	0.286743
706.185	0.286216
706.507	0.285769
706.830	0.285250
707.152	0.284697
707.474	0.284239
707.796	0.283708
708.118	0.283317
708.440	0.283160
708.762	0.282919
709.084	0.282874
709.406	0.282680
709.728	0.282461
710.049	0.282202
710.371	0.282014
710.693	0.281669
711.014	0.281203
711.336	0.280863
711.658	0.280587
711.979	0.280366
712.301	0.280123
712.622	0.280011
712.943	0.279939
713.265	0.279815
713.586	0.279730
713.907	0.279709
714.228	0.279809
714.549	0.279969
714.870	0.280058
715.191	0.280081
715.512	0.280119
715.833	0.280076
716.154	0.280011
716.475	0.279915
716.796	0.279770
717.117	0.279445
717.437	0.279017
717.758	0.278724
718.078	0.278353
718.399	0.277970
718.719	0.277587
719.040	0.277249
719.360	0.276887
719.681	0.276653
720.001	0.276486
720.321	0.276359
720.642	0.276216
720.962	0.275934
721.282	0.275733
721.602	0.275688
721.922	0.275555
722.242	0.275442
722.562	0.275270
722.882	0.275220
723.202	0.275211
723.521	0.275049
723.841	0.275079
724.161	0.275157
724.481	0.275138
724.800	0.275125
725.120	0.275146
725.439	0.275095
725.759	0.275096
726.078	0.275159
726.398	0.275263
726.717	0.275329
727.036	0.275395
727.355	0.275633
727.675	0.275811
727.994	0.276020
728.313	0.276154
728.632	0.276204
728.951	0.276176
729.270	0.276129
729.589	0.276034
729.908	0.275898
730.226	0.275821
730.545	0.275747
730.864	0.275630
731.182	0.275598
731.501	0.275618
731.820	0.275587
732.138	0.275608
732.457	0.275524
732.775	0.275420
733.093	0.275394
733.412	0.275342
733.730	0.275302
734.048	0.275099
734.367	0.274809
734.685	0.274538
735.003	0.274184
735.321	0.273965
735.639	0.273820
735.957	0.273719
736.275	0.273656
736.593	0.273725
736.910	0.273729
737.228	0.273709
737.546	0.273648
737.863	0.273481
738.181	0.273182
738.499	0.272919
738.816	0.272708
739.134	0.272552
739.451	0.272410
739.768	0.272219
740.086	0.271952
740.403	0.271674
740.720	0.271474
741.038	0.271322
741.355	0.271055
741.672	0.270853
741.989	0.270627
742.306	0.270257
742.623	0.269811
742.940	0.269312
743.257	0.268598
743.573	0.268098
743.890	0.267590
744.207	0.267246
744.523	0.266926
744.840	0.266680
745.157	0.266487
745.473	0.266216
745.790	0.265946
746.106	0.265744
746.422	0.265473
746.739	0.265436
747.055	0.265317
747.371	0.265195
747.687	0.265315
748.004	0.265446
748.320	0.265476
748.636	0.265415
748.952	0.265478
749.268	0.265580
749.584	0.265748
749.899	0.265946
750.215	0.265996
750.531	0.266027
750.847	0.266181
751.162	0.266368
751.478	0.266564
751.793	0.266592
752.109	0.266566
752.424	0.266686
752.740	0.266797
753.055	0.266995
753.370	0.267110
753.686	0.267423
754.001	0.267833
754.316	0.268175
754.631	0.268493
754.946	0.268725
755.261	0.269032
755.576	0.269229
755.891	0.269325
756.206	0.269351
756.521	0.269364
756.836	0.269497
757.150	0.269643
757.465	0.269712
757.780	0.269724
758.094	0.269798
758.409	0.269903
758.723	0.270096
759.038	0.270142
759.352	0.270119
759.667	0.270066
759.981	0.270016
760.295	0.269914
760.609	0.269694
760.923	0.269497
761.238	0.269263
761.552	0.269189
761.866	0.269012
762.180	0.268945
762.493	0.269018
762.807	0.268969
763.121	0.268854
763.435	0.268618
763.749	0.268340
764.062	0.268029
764.376	0.267837
764.689	0.267628
765.003	0.267473
765.316	0.267309
765.630	0.267335
765.943	0.267350
766.257	0.267370
766.570	0.267277
766.883	0.267088
767.196	0.266927
767.509	0.266639
767.822	0.266359
768.135	0.266025
768.448	0.265766
768.761	0.265463
769.074	0.265084
769.387	0.264835
769.700	0.264691
770.013	0.264555
770.325	0.264463
770.638	0.264396
770.950	0.264262
771.263	0.264074
771.575	0.263903
771.888	0.263592
772.200	0.263180
772.513	0.262738
772.825	0.262281
773.137	0.261941
773.449	0.261622
773.761	0.261268
774.074	0.260947
774.386	0.260715
774.698	0.260490
775.010	0.260232
775.321	0.259940
775.633	0.259660
775.945	0.259486
776.257	0.259431
776.568	0.259408
776.880	0.259491
777.192	0.259479
777.503	0.259377
777.815	0.259416
778.126	0.259429
778.438	0.259630
778.749	0.259966
779.060	0.260151
779.372	0.260335
779.683	0.260467
779.994	0.260508
780.305	0.260633
780.616	0.260796
780.927	0.260921
781.238	0.260867
781.549	0.260910
781.860	0.260918
782.171	0.261036
782.481	0.261135
782.792	0.261054
783.103	0.261005
783.413	0.260916
783.724	0.260738
784.034	0.260759
784.345	0.260541
784.655	0.260451
784.966	0.260311
785.276	0.260081
785.586	0.259988
785.896	0.259858
786.207	0.259795
786.517	0.259785
786.827	0.259751
787.137	0.259681
787.447	0.259583
787.757	0.259703
788.066	0.259672
788.376	0.259771
788.686	0.259646
788.996	0.259661
789.305	0.259661
789.615	0.259711
789.925	0.259646
790.234	0.259886
790.544	0.259914
790.853	0.260157
791.162	0.260316
791.472	0.260473
791.781	0.260714
792.090	0.260845
792.399	0.260857
792.708	0.260715
793.017	0.260640
793.326	0.260394
793.635	0.260262
793.944	0.259981
794.253	0.259727
794.562	0.259642
794.871	0.259554
795.179	0.259473
795.488	0.259270
795.797	0.259229
796.105	0.259136
796.414	0.259086
796.722	0.258943
797.031	0.258781
797.339	0.258369
797.647	0.257846
797.956	0.257250
798.264	0.256418
798.572	0.255880
798.880	0.255405
799.188	0.255093
799.496	0.254748
799.804	0.254532
800.112	0.254409
800.420	0.254458
800.728	0.254344
801.035	0.254011
801.343	0.253526
801.651	0.253069
801.958	0.252893
802.266	0.252580
802.573	0.252510
802.881	0.252549
803.188	0.252387
803.496	0.252605
803.803	0.252903
804.110	0.253145
804.417	0.253154
804.724	0.253294
805.032	0.253175
805.339	0.253135
805.646	0.252981
805.953	0.252817
806.259	0.252929
806.566	0.252617
806.873	0.252555
807.180	0.252523
807.486	0.252511
807.793	0.252526
808.100	0.252647
808.406	0.252568
808.713	0.252534
809.019	0.252062
809.326	0.251613
809.632	0.251367
809.938	0.250472
810.244	0.249770
810.551	0.249164
810.857	0.248765
811.163	0.248328
811.469	0.248017
811.775	0.247737
812.081	0.247596
812.387	0.247526
812.692	0.247059
812.998	0.247085
813.304	0.246808
813.610	0.246782
813.915	0.246756
814.221	0.246798
814.526	0.246824
814.832	0.246668
815.137	0.246393
815.443	0.246266
815.748	0.246153
816.053	0.245817
816.358	0.245698
816.664	0.245676
816.969	0.245422
817.274	0.245369
817.579	0.244950
817.884	0.244900
818.189	0.244857
818.493	0.244781
818.798	0.244817
819.103	0.244784
819.408	0.244535
819.712	0.244211
820.017	0.243780
820.321	0.243300
820.626	0.242735
820.930	0.242250
821.235	0.241936
821.539	0.241831
821.843	0.241805
822.148	0.241411
822.452	0.241425
822.756	0.241719
823.060	0.241546
823.364	0.241741
823.668	0.241327
823.972	0.241515
824.276	0.241151
824.580	0.240895
824.883	0.240858
825.187	0.240775
825.491	0.240689
825.795	0.240653
826.098	0.240839
826.402	0.240644
826.705	0.240600
827.008	0.240381
827.312	0.240089
827.615	0.239548
827.918	0.239247
828.222	0.238903
828.525	0.238721
828.828	0.238571
829.131	0.238192
829.434	0.237789
829.737	0.236967
830.040	0.236363
830.343	0.235872
830.645	0.235733
830.948	0.235347
831.251	0.235001
831.553	0.234318
831.856	0.233988
832.159	0.233954
832.461	0.233320
832.764	0.233131
833.066	0.232814
833.368	0.232575
833.671	0.232637
833.973	0.232790
834.275	0.232283
834.577	0.231848
834.879	0.231789
835.181	0.231162
835.483	0.230753
835.785	0.230095
836.087	0.229972
836.389	0.229803
836.690	0.228829
836.992	0.227909
837.294	0.226891
837.595	0.225705
837.897	0.224315
838.198	0.223490
838.500	0.221835
838.801	0.220817
839.103	0.219920
839.404	0.219052
839.705	0.218686
840.006	0.218198
840.307	0.217816
840.608	0.217757
840.910	0.217881
841.210	0.217760
841.511	0.217185
841.812	0.217399
842.113	0.217737
842.414	0.217043
842.715	0.216496
843.015	0.215575
843.316	0.214936
843.616	0.213973
843.917	0.212902
844.217	0.213086
844.518	0.212245
844.818	0.212205
845.118	0.212500
845.419	0.212203
845.719	0.212361
846.019	0.211609
846.319	0.211460
846.619	0.211064
846.919	0.211253
847.219	0.211346
847.519	0.211075
847.819	0.211403
848.118	0.210063
848.418	0.209569
848.718	0.209463
849.017	0.209465
849.317	0.210139
849.616	0.210852
849.916	0.212230
850.215	0.213336
850.515	0.214281
850.814	0.214777
851.113	0.215513
851.412	0.215715
851.712	0.216164
852.011	0.216308
852.310	0.217070
852.609	0.217126
852.908	0.217643
853.206	0.217512
853.505	0.217814
853.804	0.217850
854.103	0.218163
854.401	0.218416
854.700	0.218303
854.999	0.217712
855.297	0.217723
855.595	0.217620
855.894	0.217400
856.192	0.217073
856.491	0.216765
856.789	0.216345
857.087	0.215909
857.385	0.215209
857.683	0.214757
857.981	0.213964
858.279	0.213356
858.577	0.212036
858.875	0.211090
859.173	0.209581
859.471	0.209198
859.768	0.208658
860.066	0.207876
860.363	0.206721
860.661	0.206003
860.959	0.205892
861.256	0.206443
861.553	0.206456
861.851	0.205617
862.148	0.204881
862.445	0.204262
862.742	0.202765
863.039	0.201271
863.337	0.200102
863.634	0.198791
863.931	0.197966
864.227	0.197456
864.524	0.197154
864.821	0.197473
865.118	0.197077
865.415	0.196905
865.711	0.196102
866.008	0.195165
866.304	0.195488
866.601	0.194779
866.897	0.193675
867.194	0.193488
867.490	0.193662
867.786	0.192531
868.082	0.192515
868.379	0.191945
868.675	0.191684
868.971	0.192087
869.267	0.192493
869.563	0.193285
869.859	0.192956
870.154	0.193169
870.450	0.193640
870.746	0.193293
871.042	0.192829
871.337	0.193292
871.633	0.193866
871.928	0.193837
872.224	0.192806
872.519	0.191544
872.815	0.192035
873.110	0.192597
873.405	0.192249
873.700	0.191379
873.995	0.190509
874.291	0.191437
874.586	0.191978
874.881	0.192608
875.175	0.193198
875.470	0.193560
875.765	0.193204
876.060	0.194012
876.355	0.194630
876.649	0.194023
876.944	0.194178
877.238	0.194464
877.533	0.194429
877.827	0.194163
878.122	0.194489
878.416	0.195085
878.710	0.196175
879.005	0.195870
879.299	0.195410
879.593	0.194948
879.887	0.194498
880.181	0.194604
880.475	0.194370
880.769	0.193454
881.063	0.192762
881.356	0.192176
881.650	0.191250
881.944	0.190819
882.238	0.180243
882.531	0.184199
882.825	0.167561
883.118	0.169271
883.412	0.191874
883.705	0.164521
883.998	0.189954
884.291	0.186437
884.585	0.179046
884.878	0.180478
>>>>>>>>>> END of Data <<<<<<<<<<
>>>>>>>>>> Raw Data Start <<<<<<<<
190.664	-407
191.040	9
191.415	9
191.791	8
192.166	5
192.542	7
192.917	7
193.293	5
193.668	4
194.044	10
194.419	-11
194.794	9
195.170	9
195.545	9
195.920	9
196.296	9
196.671	10
197.046	10
197.421	11
197.796	12
198.171	12
198.546	13
198.922	13
199.297	13
199.672	14
200.047	14
200.422	14
200.796	14
201.171	15
201.546	15
201.921	14
202.296	15
202.671	15
203.045	15
203.420	15
203.795	15
204.170	15
204.544	15
204.919	15
205.294	15
205.668	15
206.043	14
206.417	14
206.792	14
207.166	13
207.541	13
207.915	13
208.289	13
208.664	13
209.038	13
209.412	13
209.787	13
210.161	13
210.535	13
210.909	13
211.284	13
211.658	13
212.032	13
212.406	13
212.780	13
213.154	13
213.528	12
213.902	13
214.276	13
214.650	13
215.024	13
215.398	13
215.772	13
216.145	13
216.519	13
216.893	12
217.267	12
217.640	12
218.014	12
218.388	13
218.761	12
219.135	13
219.508	13
219.882	13
220.256	13
220.629	13
221.003	13
221.376	13
221.749	13
222.123	13
222.496	13
222.869	13
223.243	13
223.616	13
223.989	13
224.362	14
224.736	14
225.109	14
225.482	14
225.855	14
226.228	14
226.601	14
226.974	14
227.347	13
227.720	13
228.093	13
228.466	13
228.839	13
229.212	13
229.585	13
229.957	13
230.330	13
230.703	13
231.076	13
231.448	13
231.821	13
232.194	13
232.566	13
232.939	13
233.311	12
233.684	12
234.056	12
234.429	12
234.801	12
235.174	12
235.546	12
235.918	13
236.291	13
236.663	14
237.035	13
237.408	14
237.780	14
238.152	13
238.524	14
238.896	14
239.268	14
239.641	14
240.013	14
240.385	14
240.757	15
241.129	15
241.500	15
241.872	15
242.244	15
242.616	15
242.988	15
243.360	15
243.731	15
244.103	15
244.475	15
244.847	15
245.218	15
245.590	15
245.961	15
246.333	15
246.705	15
247.076	15
247.448	15
247.819	15
248.190	15
248.562	15
248.933	15
249.305	15
249.676	16
250.047	16
250.418	15
250.790	16
251.161	16
251.532	16
251.903	16
252.274	15
252.645	15
253.016	15
253.387	16
253.758	16
254.129	16
254.500	16
254.871	16
255.242	16
255.613	15
255.984	15
256.355	15
256.725	15
257.096	15
257.467	15
257.838	14
258.208	14
258.579	14
258.949	14
259.320	14
259.690	14
260.061	14
260.431	14
260.802	15
261.172	14
261.543	14
261.913	14
262.283	14
262.654	15
263.024	14
263.394	14
263.764	14
264.135	15
264.505	15
264.875	15
265.245	14
265.615	14
265.985	14
266.355	14
266.725	14
267.095	15
267.465	15
267.835	15
268.205	15
268.575	15
268.944	15
269.314	15
269.684	14
270.054	14
270.423	14
270.793	14
271.163	14
271.532	14
271.902	14
272.271	14
272.641	14
273.010	14
273.380	15
273.749	15
274.119	15
274.488	15
274.857	15
275.227	15
275.596	15
275.965	15
276.335	15
276.704	15
277.073	15
277.442	16
277.811	16
278.180	15
278.549	15
278.918	16
279.287	16
279.656	16
280.025	16
280.394	16
280.763	16
281.132	16
281.501	16
281.869	16
282.238	15
282.607	15
282.976	15
283.344	15
283.713	15
284.081	15
284.450	15
284.819	15
285.187	15
285.556	15
285.924	15
286.292	15
286.661	15
287.029	15
287.398	15
287.766	15
288.134	15
288.502	16
288.871	16
289.239	16
289.607	15
289.975	16
290.343	16
290.711	16
291.079	16
291.447	16
291.815	15
292.183	16
292.551	15
292.919	15
293.287	15
293.655	15
294.022	15
294.390	15
294.758	15
295.126	15
295.493	15
295.861	15
296.229	14
296.596	14
296.964	14
297.331	15
297.699	15
298.066	15
298.434	15
298.801	15
299.168	15
299.536	15
299.903	16
300.270	16
300.638	16
301.005	16
301.372	16
301.739	16
302.106	16
302.473	16
302.840	16
303.207	16
303.574	16
303.941	16
304.308	16
304.675	16
305.042	16
305.409	16
305.776	16
306.143	16
306.509	16
306.876	16
307.243	16
307.610	16
307.976	17
308.343	16
308.709	17
309.076	17
309.442	17
309.809	17
310.175	17
310.542	17
310.908	17
311.275	18
311.641	18
312.007	18
312.373	18
312.740	18
313.106	18
313.472	18
313.838	18
314.204	18
314.570	19
314.936	19
315.302	19
315.668	19
316.034	19
316.400	19
316.766	19
317.132	19
317.498	19
317.864	19
318.230	20
318.595	20
318.961	20
319.327	20
319.692	21
320.058	21
320.424	21
320.789	22
321.155	22
321.520	23
321.886	23
322.251	23
322.616	24
322.982	24
323.347	25
323.712	25
324.078	26
324.443	27
324.808	28
325.173	28
325.539	29
325.904	29
326.269	30
326.634	31
326.999	32
327.364	32
327.729	33
328.094	34
328.459	34
328.823	35
329.188	36
329.553	37
329.918	38
330.283	38
330.647	39
331.012	40
331.377	41
331.741	41
332.106	42
332.470	43
332.835	44
333.199	45
333.564	45
333.928	46
334.293	47
334.657	48
335.021	48
335.386	49
335.750	50
336.114	51
336.478	52
336.843	53
337.207	54
337.571	54
337.935	55
338.299	57
338.663	58
339.027	58
339.391	59
339.755	60
340.119	61
340.483	62
340.846	63
341.210	64
341.574	65
341.938	66
342.301	67
342.665	68
343.029	69
343.392	70
343.756	71
344.119	72
344.483	73
344.846	74
345.210	75
345.573	76
345.937	77
346.300	78
346.663	79
347.027	80
347.390	81
347.753	82
348.116	82
348.479	83
348.843	84
349.206	85
349.569	85
349.932	86
350.295	86
350.658	87
351.021	87
351.383	88
351.746	89
352.109	90
352.472	90
352.835	91
353.197	91
353.560	91
353.923	92
354.285	93
354.648	93
355.011	94
355.373	94
355.736	94
356.098	95
356.461	96
356.823	96
357.185	96
357.548	97
357.910	97
358.272	98
358.635	99
358.997	100
359.359	100
359.721	101
360.083	101
360.445	101
360.807	101
361.169	102
361.531	102
361.893	103
362.255	103
362.617	103
362.979	104
363.341	105
363.703	106
364.064	106
364.426	106
364.788	107
365.149	107
365.511	108
365.873	108
366.234	108
366.596	108
366.957	108
367.319	108
367.680	109
368.042	110
368.403	110
368.764	110
369.126	110
369.487	110
369.848	110
370.209	110
370.570	110
370.931	110
371.293	110
371.654	111
372.015	110
372.376	110
372.737	110
373.098	111
373.458	111
373.819	111
374.180	111
374.541	111
374.902	111
375.263	111
375.623	112
375.984	112
376.345	112
376.705	112
377.066	112
377.426	113
377.787	113
378.147	113
378.508	114
378.868	114
379.228	114
379.589	115
379.949	115
380.309	115
380.670	115
381.030	115
381.390	115
381.750	116
382.110	116
382.470	116
382.830	116
383.190	116
383.550	116
383.910	116
384.270	117
384.630	117
384.990	117
385.350	118
385.709	118
386.069	118
386.429	118
386.788	118
387.148	118
387.508	118
387.867	119
388.227	119
388.586	120
388.946	120
389.305	121
389.665	121
390.024	122
390.383	123
390.743	123
391.102	123
391.461	124
391.820	123
392.179	124
392.539	124
392.898	124
393.257	124
393.616	124
393.975	124
394.334	125
394.693	126
395.051	126
395.410	127
395.769	127
396.128	127
396.487	127
396.845	127
397.204	128
397.563	127
397.921	127
398.280	127
398.638	127
398.997	128
399.355	128
399.714	128
400.072	128
400.431	129
400.789	129
401.147	129
401.506	130
401.864	130
402.222	130
402.580	130
402.938	130
403.297	130
403.655	130
404.013	130
404.371	130
404.729	130
405.087	130
405.444	130
405.802	130
406.160	130
406.518	130
406.876	130
407.233	130
407.591	130
407.949	130
408.306	130
408.664	131
409.022	130
409.379	130
409.737	130
410.094	130
410.451	130
410.809	130
411.166	131
411.523	131
411.881	131
412.238	131
412.595	131
412.952	131
413.310	131
413.667	131
414.024	131
414.381	131
414.738	131
415.095	132
415.452	132
415.809	132
416.165	132
416.522	132
416.879	133
417.236	134
417.593	135
417.949	136
418.306	137
418.663	138
419.019	139
419.376	141
419.732	142
420.089	143
420.445	144
420.802	145
421.158	146
421.514	147
421.871	148
422.227	149
422.583	149
422.939	150
423.295	151
423.652	151
424.008	152
424.364	152
424.720	152
425.076	152
425.432	152
425.788	152
426.143	152
426.499	153
426.855	153
427.211	153
427.567	154
427.922	154
428.278	155
428.634	155
428.989	155
429.345	156
429.700	156
430.056	157
430.411	157
430.767	157
431.122	158
431.478	159
431.833	160
432.188	160
432.543	161
432.899	161
433.254	162
433.609	162
433.964	162
434.319	162
434.674	162
435.029	162
435.384	163
435.739	163
436.094	164
436.449	165
436.804	166
437.158	167
437.513	169
437.868	171
438.223	173
438.577	175
438.932	176
439.287	178
439.641	181
439.996	183
440.350	185
440.704	187
441.059	189
441.413	192
441.768	194
442.122	196
442.476	198
442.830	200
443.185	201
443.539	203
443.893	205
444.247	207
444.601	209
444.955	210
445.309	211
445.663	211
446.017	212
446.371	212
446.724	213
447.078	213
447.432	213
447.786	213
448.139	214
448.493	214
448.847	214
449.200	214
449.554	214
449.907	213
450.261	214
450.614	214
450.968	214
451.321	214
451.674	214
452.027	214
452.381	214
452.734	215
453.087	215
453.440	216
453.793	217
454.146	218
454.499	219
454.852	222
455.205	224
455.558	226
455.911	229
456.264	231
456.617	233
456.970	235
457.322	237
457.675	239
458.028	241
458.380	243
458.733	244
459.086	246
459.438	248
459.791	249
460.143	252
460.496	255
460.848	258
461.200	261
461.553	264
461.905	268
462.257	270
462.609	273
462.961	276
463.314	278
463.666	280
464.018	282
464.370	285
464.722	287
465.074	290
465.426	292
465.777	294
466.129	296
466.481	297
466.833	299
467.184	299
467.536	300
467.888	300
468.239	300
468.591	300
468.943	301
469.294	301
469.646	303
469.997	304
470.348	307
470.700	309
471.051	313
471.402	316
471.754	321
472.105	325
472.456	330
472.807	336
473.158	342
473.509	348
473.860	356
474.211	363
474.562	371
474.913	378
475.264	387
475.615	395
475.966	404
476.316	412
476.667	421
477.018	429
477.368	437
477.719	446
478.070	454
478.420	463
478.771	471
479.121	479
479.472	486
479.822	494
480.172	503
480.523	514
480.873	527
481.223	550
481.573	583
481.924	625
482.274	672
482.624	721
482.974	770
483.324	813
483.674	847
484.024	870
484.374	885
484.724	895
485.073	903
485.423	909
485.773	915
486.123	921
486.472	927
486.822	932
487.172	937
487.521	941
487.871	944
488.220	942
488.570	931
488.919	909
489.268	880
489.618	845
489.967	807
490.316	769
490.666	735
491.015	712
491.364	698
491.713	692
492.062	691
492.411	692
492.760	696
493.109	699
493.458	702
493.807	705
494.156	708
494.505	711
494.853	714
495.202	718
495.551	722
495.900	727
496.248	732
496.597	738
496.945	743
497.294	747
497.642	753
497.991	759
498.339	766
498.688	773
499.036	780
499.384	786
499.732	792
500.081	797
500.429	802
500.777	807
501.125	811
501.473	815
501.821	819
502.169	824
502.517	828
502.865	830
503.213	833
503.561	834
503.908	836
504.256	837
504.604	837
504.952	838
505.299	838
505.647	837
505.994	836
506.342	834
506.689	833
507.037	831
507.384	831
507.732	831
508.079	831
508.426	831
508.774	832
509.121	832
509.468	831
509.815	830
510.162	830
510.509	830
510.856	829
511.203	828
511.550	827
511.897	826
512.244	825
512.591	825
512.938	823
513.284	823
513.631	822
513.978	821
514.324	820
514.671	818
515.018	817
515.364	815
515.711	814
516.057	813
516.403	812
516.750	810
517.096	808
517.443	806
517.789	804
518.135	801
518.481	800
518.827	798
519.173	796
519.519	795
519.865	793
520.211	792
520.557	791
520.903	790
521.249	790
521.595	789
521.941	789
522.287	788
522.632	788
522.978	787
523.324	787
523.669	787
524.015	788
524.360	791
524.706	794
525.051	798
525.397	803
525.742	808
526.087	813
526.433	818
526.778	822
527.123	825
527.468	829
527.813	831
528.158	833
528.504	837
528.849	842
529.193	848
529.538	855
529.883	864
530.228	874
530.573	885
530.918	897
531.263	909
531.607	920
531.952	929
532.296	938
532.641	944
532.986	950
533.330	955
533.675	961
534.019	968
534.363	978
534.708	988
535.052	1001
535.396	1014
535.741	1026
536.085	1037
536.429	1048
536.773	1057
537.117	1065
537.461	1071
537.805	1077
538.149	1083
538.493	1090
538.837	1098
539.181	1107
539.524	1118
539.868	1130
540.212	1144
540.556	1158
540.899	1174
541.243	1188
541.586	1199
541.930	1209
542.273	1217
542.617	1223
542.960	1230
543.304	1238
543.647	1248
543.990	1261
544.333	1276
544.677	1291
545.020	1305
545.363	1317
545.706	1327
546.049	1335
546.392	1340
546.735	1342
547.078	1345
547.421	1347
547.764	1351
548.106	1355
548.449	1361
548.792	1369
549.135	1379
549.477	1392
549.820	1405
550.162	1416
550.505	1426
550.847	1434
551.190	1439
551.532	1445
551.875	1450
552.217	1457
552.559	1465
552.901	1474
553.244	1486
553.586	1499
553.928	1512
554.270	1524
554.612	1534
554.954	1543
555.296	1551
555.638	1559
555.980	1568
556.322	1578
556.663	1591
557.005	1609
557.347	1629
557.689	1651
558.030	1673
558.372	1694
558.713	1713
559.055	1731
559.396	1750
559.738	1770
560.079	1791
560.421	1814
560.762	1840
561.103	1869
561.444	1901
561.786	1933
562.127	1968
562.468	2006
562.809	2046
563.150	2091
563.491	2140
563.832	2194
564.173	2255
564.514	2325
564.855	2409
565.195	2511
565.536	2633
565.877	2773
566.218	2932
566.558	3112
566.899	3309
567.239	3522
567.580	3746
567.920	3977
568.261	4210
568.601	4450
568.941	4699
569.282	4955
569.622	5221
569.962	5498
570.302	5794
570.643	6101
570.983	6411
571.323	6711
571.663	7003
572.003	7281
572.343	7543
572.683	7790
573.022	8044
573.362	8311
573.702	8588
574.042	8865
574.381	9133
574.721	9390
575.061	9637
575.400	9863
575.740	10066
576.079	10249
576.419	10431
576.758	10636
577.097	10876
577.437	11140
577.776	11420
578.115	11713
578.454	12010
578.794	12282
579.133	12498
579.472	12652
579.811	12749
580.150	12792
580.489	12793
580.828	12777
581.167	12763
581.505	12759
581.844	12760
582.183	12762
582.522	12772
582.860	12789
583.199	12804
583.538	12801
583.876	12758
584.215	12663
584.553	12507
584.891	12296
585.230	12035
585.568	11744
585.906	11448
586.245	11180
586.583	10949
586.921	10758
587.259	10584
587.597	10409
587.935	10228
588.273	10042
588.611	9870
588.949	9719
589.287	9594
589.625	9497
589.963	9423
590.300	9365
590.638	9313
590.976	9254
591.313	9183
591.651	9116
591.989	9059
592.326	9013
592.664	8974
593.001	8943
593.338	8928
593.676	8923
594.013	8935
594.350	8974
594.687	9037
595.025	9106
595.362	9170
595.699	9217
596.036	9250
596.373	9263
596.710	9253
597.047	9227
597.384	9193
597.720	9154
598.057	9124
598.394	9104
598.731	9095
599.067	9102
599.404	9125
599.741	9168
600.077	9226
600.414	9290
600.750	9357
601.087	9409
601.423	9438
601.759	9445
602.096	9435
602.432	9413
602.768	9378
603.104	9325
603.440	9259
603.776	9188
604.112	9111
604.448	9032
604.784	8948
605.120	8856
605.456	8767
605.792	8674
606.128	8577
606.463	8476
606.799	8375
607.135	8284
607.470	8192
607.806	8102
608.142	8014
608.477	7930
608.812	7849
609.148	7767
609.483	7681
609.819	7592
610.154	7507
610.489	7430
610.824	7361
611.159	7304
611.494	7247
611.830	7196
612.165	7147
612.500	7091
612.834	7025
613.169	6950
613.504	6868
613.839	6775
614.174	6670
614.509	6564
614.843	6458
615.178	6357
615.512	6257
615.847	6158
616.182	6060
616.516	5960
616.850	5856
617.185	5747
617.519	5638
617.853	5519
618.188	5396
618.522	5283
618.856	5187
619.190	5104
619.524	5031
619.858	4973
620.192	4928
620.526	4887
620.860	4847
621.194	4809
621.528	4772
621.862	4735
622.195	4689
622.529	4641
622.863	4591
623.196	4541
623.530	4490
623.864	4438
624.197	4386
624.530	4336
624.864	4290
625.197	4243
625.531	4189
625.864	4124
626.197	4054
626.530	3979
626.863	3894
627.196	3801
627.529	3708
627.862	3615
628.195	3524
628.528	3434
628.861	3347
629.194	3269
629.527	3194
629.860	3120
630.192	3047
630.525	2980
630.858	2917
631.190	2857
631.523	2799
631.855	2745
632.188	2698
632.520	2654
632.852	2613
633.185	2570
633.517	2530
633.849	2493
634.182	2459
634.514	2427
634.846	2399
635.178	2372
635.510	2350
635.842	2329
636.174	2309
636.506	2289
636.837	2270
637.169	2251
637.501	2230
637.833	2207
638.164	2182
638.496	2153
638.828	2122
639.159	2086
639.491	2047
639.822	2007
640.154	1966
640.485	1926
640.816	1886
641.147	1846
641.479	1808
641.810	1771
642.141	1736
642.472	1700
642.803	1665
643.134	1632
643.465	1604
643.796	1581
644.127	1564
644.458	1556
644.789	1556
645.119	1564
645.450	1578
645.781	1595
646.111	1610
646.442	1625
646.773	1636
647.103	1645
647.433	1653
647.764	1661
648.094	1672
648.425	1686
648.755	1702
649.085	1721
649.415	1741
649.745	1761
650.075	1782
650.405	1806
650.735	1859
651.065	2232
651.395	3384
651.725	5314
652.055	7823
652.385	10711
652.715	13877
653.044	17230
653.374	20315
653.704	22738
654.033	24458
654.363	25651
654.692	26453
655.022	26980
655.351	27328
655.680	27545
656.010	27664
656.339	27719
656.668	27734
656.997	27729
657.326	27710
657.655	27653
657.984	27268
658.313	26099
658.642	24146
658.971	21606
659.300	18684
659.629	15485
659.958	12100
660.286	8986
660.615	6538
660.944	4799
661.272	3588
661.601	2770
661.929	2224
662.258	1856
662.586	1613
662.915	1466
663.243	1381
663.571	1333
663.899	1305
664.228	1287
664.556	1275
664.884	1267
665.212	1260
665.540	1256
665.868	1255
666.196	1254
666.524	1253
666.852	1254
667.179	1259
667.507	1269
667.835	1283
668.162	1302
668.490	1326
668.818	1353
669.145	1383
669.473	1412
669.800	1438
670.127	1462
670.455	1482
670.782	1499
671.109	1513
671.436	1526
671.764	1536
672.091	1544
672.418	1551
672.745	1557
673.072	1563
673.399	1570
673.726	1578
674.053	1584
674.379	1587
674.706	1586
675.033	1586
675.359	1584
675.686	1581
676.013	1579
676.339	1581
676.666	1586
676.992	1597
677.318	1613
677.645	1632
677.971	1650
678.297	1665
678.624	1681
678.950	1696
679.276	1711
679.602	1724
679.928	1738
680.254	1756
680.580	1778
680.906	1806
681.232	1840
681.558	1876
681.883	1912
682.209	1945
682.535	1976
682.860	2004
683.186	2028
683.511	2047
683.837	2059
684.162	2069
684.488	2077
684.813	2085
685.138	2093
685.464	2099
685.789	2105
686.114	2110
686.439	2117
686.764	2125
687.089	2131
687.414	2131
687.739	2125
688.064	2113
688.389	2097
688.714	2078
689.039	2058
689.363	2037
689.688	2014
690.013	1991
690.337	1970
690.662	1953
690.986	1938
691.311	1923
691.635	1907
691.959	1893
692.284	1883
692.608	1880
692.932	1884
693.256	1890
693.580	1898
693.904	1908
694.228	1921
694.552	1932
694.876	1937
695.200	1936
695.524	1928
695.848	1916
696.172	1901
696.495	1885
696.819	1869
697.143	1851
697.466	1834
697.790	1819
698.113	1808
698.437	1803
698.760	1802
699.083	1801
699.407	1796
699.730	1786
700.053	1772
700.376	1752
700.699	1724
701.022	1688
701.345	1650
701.668	1615
701.991	1585
702.314	1564
702.637	1554
702.960	1557
703.283	1573
703.605	1601
703.928	1639
704.251	1682
704.573	1725
704.896	1764
705.218	1796
705.540	1822
705.863	1842
706.185	1859
706.507	1874
706.830	1888
707.152	1902
707.474	1917
707.796	1935
708.118	1953
708.440	1970
708.762	1986
709.084	1998
709.406	2005
709.728	2006
710.049	2002
710.371	1994
710.693	1981
711.014	1967
711.336	1953
711.658	1940
711.979	1929
712.301	1918
712.622	1907
712.943	1893
713.265	1877
713.586	1860
713.907	1844
714.228	1829
714.549	1817
714.870	1809
715.191	1805
715.512	1804
715.833	1802
716.154	1797
716.475	1789
716.796	1777
717.117	1761
717.437	1742
717.758	1719
718.078	1697
718.399	1675
718.719	1655
719.040	1638
719.360	1625
719.681	1615
720.001	1609
720.321	1606
720.642	1604
720.962	1605
721.282	1609
721.602	1614
721.922	1620
722.242	1627
722.562	1637
722.882	1650
723.202	1661
723.521	1672
723.841	1682
724.161	1693
724.481	1705
724.800	1716
725.120	1731
725.439	1749
725.759	1769
726.078	1792
726.398	1820
726.717	1855
727.036	1894
727.355	1935
727.675	1976
727.994	2014
728.313	2051
728.632	2083
728.951	2110
729.270	2133
729.589	2155
729.908	2181
730.226	2210
730.545	2243
730.864	2278
731.182	2316
731.501	2354
731.820	2391
732.138	2422
732.457	2450
732.775	2476
733.093	2497
733.412	2509
733.730	2511
734.048	2506
734.367	2495
734.685	2480
735.003	2462
735.321	2446
735.639	2433
735.957	2422
736.275	2412
736.593	2398
736.910	2377
737.228	2348
737.546	2312
737.863	2270
738.181	2224
738.499	2174
738.816	2125
739.134	2077
739.451	2029
739.768	1980
740.086	1933
740.403	1890
740.720	1849
741.038	1811
741.355	1774
741.672	1738
741.989	1700
742.306	1662
742.623	1623
742.940	1585
743.257	1550
743.573	1518
743.890	1493
744.207	1474
744.523	1460
744.840	1451
745.157	1445
745.473	1444
745.790	1449
746.106	1460
746.422	1477
746.739	1497
747.055	1522
747.371	1551
747.687	1580
748.004	1608
748.320	1634
748.636	1656
748.952	1678
749.268	1701
749.584	1722
749.899	1741
750.215	1761
750.531	1783
750.847	1808
751.162	1833
751.478	1857
751.793	1882
752.109	1910
752.424	1938
752.740	1968
753.055	2001
753.370	2042
753.686	2088
754.001	2138
754.316	2191
754.631	2247
754.946	2307
755.261	2369
755.576	2430
755.891	2489
756.206	2547
756.521	2608
756.836	2670
757.150	2730
757.465	2782
757.780	2828
758.094	2866
758.409	2896
758.723	2914
759.038	2921
759.352	2922
759.667	2914
759.981	2899
760.295	2884
760.609	2872
760.923	2865
761.238	2861
761.552	2857
761.866	2853
762.180	2847
762.493	2830
762.807	2801
763.121	2756
763.435	2700
763.749	2638
764.062	2580
764.376	2531
764.689	2496
765.003	2478
765.316	2475
765.630	2483
765.943	2496
766.257	2512
766.570	2526
766.883	2530
767.196	2523
767.509	2507
767.822	2483
768.135	2452
768.448	2419
768.761	2383
769.074	2353
769.387	2329
769.700	2314
770.013	2305
770.325	2298
770.638	2287
770.950	2268
771.263	2238
771.575	2195
771.888	2141
772.200	2079
772.513	2011
772.825	1940
773.137	1866
773.449	1794
773.761	1724
774.074	1660
774.386	1602
774.698	1553
775.010	1513
775.321	1485
775.633	1466
775.945	1455
776.257	1449
776.568	1447
776.880	1450
777.192	1461
777.503	1477
777.815	1496
778.126	1521
778.438	1552
778.749	1584
779.060	1616
779.372	1646
779.683	1675
779.994	1702
780.305	1722
780.616	1736
780.927	1745
781.238	1748
781.549	1745
781.860	1733
782.171	1717
782.481	1699
782.792	1682
783.103	1664
783.413	1645
783.724	1625
784.034	1605
784.345	1587
784.655	1571
784.966	1554
785.276	1537
785.586	1519
785.896	1502
786.207	1484
786.517	1464
786.827	1445
787.137	1428
787.447	1411
787.757	1394
788.066	1378
788.376	1363
788.686	1348
788.996	1332
789.305	1317
789.615	1305
789.925	1298
790.234	1295
790.544	1298
790.853	1304
791.162	1311
791.472	1317
791.781	1319
792.090	1316
792.399	1308
792.708	1295
793.017	1282
793.326	1268
793.635	1256
793.944	1245
794.253	1235
794.562	1227
794.871	1223
795.179	1219
795.488	1215
795.797	1209
796.105	1198
796.414	1180
796.722	1156
797.031	1125
797.339	1088
797.647	1047
797.956	1004
798.264	964
798.572	930
798.880	904
799.188	885
799.496	871
799.804	860
800.112	852
800.420	845
800.728	838
801.035	830
801.343	821
801.651	813
801.958	811
802.266	814
802.573	821
802.881	830
803.188	841
803.496	853
803.803	865
804.110	876
804.417	886
804.724	894
805.032	903
805.339	909
805.646	914
805.953	917
806.259	917
806.566	916
806.873	912
807.180	908
807.486	903
807.793	897
808.100	888
808.406	873
808.713	853
809.019	830
809.326	807
809.632	785
809.938	764
810.244	745
810.551	729
810.857	716
811.163	704
811.469	692
811.775	679
812.081	665
812.387	652
812.692	643
812.998	635
813.304	629
813.610	624
813.915	620
814.221	617
814.526	614
814.832	612
815.137	609
815.443	606
815.748	600
816.053	592
816.358	584
816.664	577
816.969	570
817.274	564
817.579	560
817.884	557
818.189	556
818.493	556
818.798	554
819.103	550
819.408	545
819.712	539
820.017	532
820.321	525
820.626	519
820.930	512
821.235	508
821.539	506
821.843	506
822.148	507
822.452	508
822.756	507
823.060	506
823.364	503
823.668	498
823.972	493
824.276	488
824.580	484
824.883	482
825.187	481
825.491	481
825.795	481
826.098	481
826.402	481
826.705	479
827.008	476
827.312	471
827.615	464
827.918	454
828.222	444
828.525	433
828.828	422
829.131	412
829.434	401
829.737	392
830.040	384
830.343	378
830.645	372
830.948	366
831.251	360
831.553	356
831.856	352
832.159	348
832.461	344
832.764	339
833.066	334
833.368	331
833.671	327
833.973	325
834.275	323
834.577	321
834.879	318
835.181	315
835.483	312
835.785	308
836.087	302
836.389	296
836.690	289
836.992	281
837.294	273
837.595	264
837.897	255
838.198	246
838.500	238
838.801	231
839.103	224
839.404	219
839.705	213
840.006	210
840.307	206
840.608	204
840.910	202
841.210	201
841.511	200
841.812	198
842.113	195
842.414	193
842.715	189
843.015	185
843.316	182
843.616	178
843.917	175
844.217	172
844.518	169
844.818	167
845.118	166
845.419	165
845.719	164
846.019	163
846.319	163
846.619	162
846.919	161
847.219	160
847.519	159
847.819	158
848.118	159
848.418	161
848.718	165
849.017	173
849.317	184
849.616	198
849.916	213
850.215	230
850.515	249
850.814	267
851.113	284
851.412	299
851.712	313
852.011	325
852.310	337
852.609	348
852.908	357
853.206	365
853.505	373
853.804	380
854.103	385
854.401	389
854.700	391
854.999	390
855.297	386
855.595	378
855.894	367
856.192	354
856.491	339
856.789	322
857.087	305
857.385	289
857.683	274
857.981	261
858.279	250
858.577	238
858.875	228
859.173	221
859.471	214
859.768	209
860.066	204
860.363	200
860.661	197
860.959	194
861.256	191
861.553	188
861.851	185
862.148	181
862.445	178
862.742	175
863.039	172
863.337	170
863.634	168
863.931	167
864.227	166
864.524	166
864.821	166
865.118	165
865.415	164
865.711	162
866.008	159
866.304	156
866.601	153
866.897	151
867.194	148
867.490	147
867.786	146
868.082	146
868.379	147
868.675	147
868.971	147
869.267	147
869.563	147
869.859	147
870.154	146
870.450	145
870.746	144
871.042	144
871.337	143
871.633	144
871.928	144
872.224	145
872.519	147
872.815	148
873.110	148
873.405	148
873.700	148
873.995	148
874.291	147
874.586	148
874.881	148
875.175	150
875.470	152
875.765	155
876.060	157
876.355	160
876.649	163
876.944	167
877.238	169
877.533	172
877.827	174
878.122	176
878.416	176
878.710	176
879.005	176
879.299	175
879.593	174
879.887	174
880.181	173
880.475	172
880.769	171
881.063	170
881.356	168
881.650	166
881.944	163
882.238	137
882.531	131
882.825	133
883.118	135
883.412	130
883.705	136
883.998	133
884.291	138
884.585	141
884.878	146
>>>>>>>>>> END of Data <<<<<<<<<<