Date	2021年06月15日火曜日 05時01分18秒
Spectrometers	USB2+H05879
ダーク	使用
リファレンス	使用
積分時間[msec]	10
平均回数	280
ｽﾑｰｼﾞﾝｸﾞ	10
Electrical Dark	USE
ピクセル数	2048
計測モード	吸光度
保存開始波長[nm]	190.664
保存終了波長[nm]	884.878
保存ﾋﾟｯﾁ波長[nm]	全波長

>>>>>>>>>> Data Start <<<<<<<<<<<<
190.664	0.000000
191.040	0.000000
191.415	0.000000
191.791	-2.482443
192.166	-0.497115
192.542	-0.974073
192.917	0.000000
193.293	-0.550280
193.668	-0.389464
194.044	-1.044835
194.419	0.000000
194.794	-1.419972
195.170	-1.336823
195.545	-1.244189
195.920	-1.115476
196.296	-0.996717
196.671	-0.828589
197.046	-0.673656
197.421	-0.614859
197.796	-0.617978
198.171	-0.584055
198.546	-0.536948
198.922	-0.478013
199.297	-0.454267
199.672	-0.428004
200.047	-0.407747
200.422	-0.378055
200.796	-0.370511
201.171	-0.351419
201.546	-0.340507
201.921	-0.333842
202.296	-0.319981
202.671	-0.294499
203.045	-0.273825
203.420	-0.261148
203.795	-0.251765
204.170	-0.250850
204.544	-0.249923
204.919	-0.244273
205.294	-0.242390
205.668	-0.218670
206.043	-0.202013
206.417	-0.210267
206.792	-0.209425
207.166	-0.199590
207.541	-0.194239
207.915	-0.195444
208.289	-0.181380
208.664	-0.170451
209.038	-0.170157
209.412	-0.156273
209.787	-0.125596
210.161	-0.114065
210.535	-0.119892
210.909	-0.110258
211.284	-0.106238
211.658	-0.106172
212.032	-0.102296
212.406	-0.114411
212.780	-0.122518
213.154	-0.121422
213.528	-0.127636
213.902	-0.125133
214.276	-0.107425
214.650	-0.110181
215.024	-0.109176
215.398	-0.102057
215.772	-0.085701
216.145	-0.087963
216.519	-0.093024
216.893	-0.087042
217.267	-0.086960
217.640	-0.103270
218.014	-0.094286
218.388	-0.075898
218.761	-0.079094
219.135	-0.075280
219.508	-0.070031
219.882	-0.075139
220.256	-0.059407
220.629	-0.047852
221.003	-0.047718
221.376	-0.049162
221.749	-0.055355
222.123	-0.060768
222.496	-0.062035
222.869	-0.064154
223.243	-0.067784
223.616	-0.075553
223.989	-0.076121
224.362	-0.068888
224.736	-0.076724
225.109	-0.072111
225.482	-0.070714
225.855	-0.071798
226.228	-0.080818
226.601	-0.082401
226.974	-0.077370
227.347	-0.070893
227.720	-0.067340
228.093	-0.079099
228.466	-0.089500
228.839	-0.089000
229.212	-0.081559
229.585	-0.090795
229.957	-0.088431
230.330	-0.083890
230.703	-0.077212
231.076	-0.080736
231.448	-0.081310
231.821	-0.089540
232.194	-0.089494
232.566	-0.084295
232.939	-0.093824
233.311	-0.094155
233.684	-0.098117
234.056	-0.097794
234.429	-0.092960
234.801	-0.095467
235.174	-0.087251
235.546	-0.082109
235.918	-0.077376
236.291	-0.069635
236.663	-0.060731
237.035	-0.064451
237.408	-0.050594
237.780	-0.041869
238.152	-0.041949
238.524	-0.052921
238.896	-0.042078
239.268	-0.043767
239.641	-0.043070
240.013	-0.031161
240.385	-0.027636
240.757	-0.026056
241.129	-0.025267
241.500	-0.027395
241.872	-0.020767
242.244	-0.009532
242.616	-0.009235
242.988	-0.011770
243.360	-0.013125
243.731	-0.000260
244.103	0.002696
244.475	0.000521
244.847	0.003527
245.218	0.005627
245.590	0.003024
245.961	0.008519
246.333	0.021127
246.705	0.015432
247.076	0.021464
247.448	0.027783
247.819	0.020500
248.190	0.024178
248.562	0.026228
248.933	0.026900
249.305	0.035130
249.676	0.035604
250.047	0.024876
250.418	0.021952
250.790	0.020279
251.161	0.020494
251.532	0.011712
251.903	0.000525
252.274	0.002569
252.645	0.002430
253.016	-0.001664
253.387	-0.007086
253.758	-0.015653
254.129	-0.021477
254.500	-0.013306
254.871	-0.012687
255.242	-0.016393
255.613	-0.018806
255.984	-0.022113
256.355	-0.021732
256.725	-0.016299
257.096	-0.013610
257.467	-0.016820
257.838	-0.014233
258.208	-0.007402
258.579	-0.007689
258.949	-0.004921
259.320	-0.002769
259.690	0.007892
260.061	0.007271
260.431	0.021209
260.802	0.023525
261.172	0.027109
261.543	0.030632
261.913	0.034878
262.283	0.025912
262.654	0.022369
263.024	0.021238
263.394	0.025070
263.764	0.029343
264.135	0.033507
264.505	0.027280
264.875	0.025581
265.245	0.025254
265.615	0.029588
265.985	0.029418
266.355	0.035947
266.725	0.035089
267.095	0.041162
267.465	0.046845
267.835	0.046706
268.205	0.037508
268.575	0.037657
268.944	0.040838
269.314	0.047247
269.684	0.047807
270.054	0.048015
270.423	0.054099
270.793	0.059670
271.163	0.057219
271.532	0.052413
271.902	0.050593
272.271	0.053918
272.641	0.048889
273.010	0.046810
273.380	0.036897
273.749	0.036736
274.119	0.037507
274.488	0.041797
274.857	0.045000
275.227	0.043621
275.596	0.043743
275.965	0.046125
276.335	0.052596
276.704	0.052025
277.073	0.054550
277.442	0.059396
277.811	0.065452
278.180	0.067389
278.549	0.071976
278.918	0.069095
279.287	0.065295
279.656	0.067951
280.025	0.061931
280.394	0.062294
280.763	0.065978
281.132	0.076184
281.501	0.079219
281.869	0.067532
282.238	0.063628
282.607	0.060809
282.976	0.057518
283.344	0.059130
283.713	0.053540
284.081	0.048074
284.450	0.046493
284.819	0.047027
285.187	0.049475
285.556	0.047442
285.924	0.042968
286.292	0.036440
286.661	0.044765
287.029	0.052960
287.398	0.049174
287.766	0.050636
288.134	0.055070
288.502	0.054863
288.871	0.052294
289.239	0.053198
289.607	0.058251
289.975	0.058919
290.343	0.065261
290.711	0.066813
291.079	0.067839
291.447	0.072329
291.815	0.073487
292.183	0.077730
292.551	0.080384
292.919	0.080442
293.287	0.083778
293.655	0.087945
294.022	0.087722
294.390	0.083290
294.758	0.085046
295.126	0.089183
295.493	0.099571
295.861	0.102864
296.229	0.103395
296.596	0.106756
296.964	0.101613
297.331	0.107007
297.699	0.114300
298.066	0.110655
298.434	0.115032
298.801	0.116016
299.168	0.120221
299.536	0.127977
299.903	0.125839
300.270	0.128905
300.638	0.133090
301.005	0.136638
301.372	0.139110
301.739	0.148010
302.106	0.156194
302.473	0.168504
302.840	0.178520
303.207	0.194115
303.574	0.212432
303.941	0.228528
304.308	0.239342
304.675	0.254069
305.042	0.273122
305.409	0.294359
305.776	0.313177
306.143	0.332836
306.509	0.355059
306.876	0.379630
307.243	0.395967
307.610	0.427626
307.976	0.450464
308.343	0.481405
308.709	0.508886
309.076	0.542808
309.442	0.571479
309.809	0.598851
310.175	0.622190
310.542	0.650329
310.908	0.671441
311.275	0.690066
311.641	0.719279
312.007	0.746596
312.373	0.778602
312.740	0.808499
313.106	0.835243
313.472	0.868340
313.838	0.895644
314.204	0.917390
314.570	0.934337
314.936	0.964517
315.302	0.986195
315.668	1.009257
316.034	1.027286
316.400	1.057294
316.766	1.073714
317.132	1.102722
317.498	1.127187
317.864	1.146977
318.230	1.162499
318.595	1.185543
318.961	1.205869
319.327	1.223880
319.692	1.240093
320.058	1.250324
320.424	1.261307
320.789	1.274958
321.155	1.282241
321.520	1.295664
321.886	1.315234
322.251	1.332180
322.616	1.342606
322.982	1.352207
323.347	1.359556
323.712	1.371950
324.078	1.378763
324.443	1.386277
324.808	1.390118
325.173	1.398969
325.539	1.406989
325.904	1.415251
326.269	1.420880
326.634	1.425907
326.999	1.431329
327.364	1.438414
327.729	1.445185
328.094	1.448814
328.459	1.451500
328.823	1.459550
329.188	1.467727
329.553	1.468385
329.918	1.473547
330.283	1.479239
330.647	1.486185
331.012	1.491394
331.377	1.493855
331.741	1.496893
332.106	1.503979
332.470	1.505526
332.835	1.507656
333.199	1.510889
333.564	1.513780
333.928	1.517239
334.293	1.520048
334.657	1.522646
335.021	1.525667
335.386	1.526541
335.750	1.529737
336.114	1.532402
336.478	1.533616
336.843	1.532316
337.207	1.534615
337.571	1.538191
337.935	1.538551
338.299	1.538643
338.663	1.538325
339.027	1.541219
339.391	1.541827
339.755	1.541546
340.119	1.542727
340.483	1.542908
340.846	1.545311
341.210	1.547115
341.574	1.547055
341.938	1.548392
342.301	1.549402
342.665	1.549561
343.029	1.551047
343.392	1.551679
343.756	1.551942
344.119	1.552657
344.483	1.553666
344.846	1.553461
345.210	1.553433
345.573	1.552542
345.937	1.552612
346.300	1.554763
346.663	1.553434
347.027	1.554475
347.390	1.553923
347.753	1.554230
348.116	1.554754
348.479	1.554793
348.843	1.554176
349.206	1.554401
349.569	1.552977
349.932	1.553644
350.295	1.553770
350.658	1.554531
351.021	1.555197
351.383	1.556480
351.746	1.555310
352.109	1.554151
352.472	1.554848
352.835	1.553639
353.197	1.554109
353.560	1.555413
353.923	1.554838
354.285	1.554862
354.648	1.553937
355.011	1.554205
355.373	1.555094
355.736	1.554729
356.098	1.553144
356.461	1.553339
356.823	1.553023
357.185	1.554574
357.548	1.554212
357.910	1.554173
358.272	1.552994
358.635	1.551458
358.997	1.550673
359.359	1.552172
359.721	1.552421
360.083	1.553201
360.445	1.553921
360.807	1.555063
361.169	1.553476
361.531	1.554259
361.893	1.555311
362.255	1.556811
362.617	1.557608
362.979	1.557156
363.341	1.556343
363.703	1.557448
364.064	1.557771
364.426	1.558708
364.788	1.558085
365.149	1.558218
365.511	1.559683
365.873	1.561619
366.234	1.562502
366.596	1.563091
366.957	1.562840
367.319	1.563660
367.680	1.563370
368.042	1.562719
368.403	1.562790
368.764	1.564198
369.126	1.563087
369.487	1.563237
369.848	1.562350
370.209	1.563224
370.570	1.563887
370.931	1.565622
371.293	1.565503
371.654	1.566760
372.015	1.567733
372.376	1.568504
372.737	1.568872
373.098	1.568159
373.458	1.568159
373.819	1.569101
374.180	1.569707
374.541	1.570285
374.902	1.571089
375.263	1.571573
375.623	1.571646
375.984	1.573311
376.345	1.573624
376.705	1.575324
377.066	1.576684
377.426	1.578228
377.787	1.578256
378.147	1.578947
378.508	1.579104
378.868	1.580492
379.228	1.580460
379.589	1.579656
379.949	1.580637
380.309	1.581734
380.670	1.582422
381.030	1.582656
381.390	1.583101
381.750	1.582853
382.110	1.582815
382.470	1.584089
382.830	1.584982
383.190	1.587576
383.550	1.587558
383.910	1.589054
384.270	1.589420
384.630	1.589969
384.990	1.589992
385.350	1.590640
385.709	1.590842
386.069	1.591866
386.429	1.591706
386.788	1.592858
387.148	1.593986
387.508	1.595031
387.867	1.595500
388.227	1.596422
388.586	1.597515
388.946	1.599342
389.305	1.601142
389.665	1.602872
390.024	1.603267
390.383	1.604118
390.743	1.604107
391.102	1.604387
391.461	1.604334
391.820	1.605902
392.179	1.605312
392.539	1.605993
392.898	1.607375
393.257	1.608915
393.616	1.610617
393.975	1.611451
394.334	1.612272
394.693	1.614086
395.051	1.614820
395.410	1.615823
395.769	1.616894
396.128	1.618036
396.487	1.618067
396.845	1.618495
397.204	1.618928
397.563	1.618712
397.921	1.619074
398.280	1.619357
398.638	1.618221
398.997	1.618467
399.355	1.617675
399.714	1.618712
400.072	1.618564
400.431	1.617932
400.789	1.617851
401.147	1.617444
401.506	1.617460
401.864	1.617002
402.222	1.616001
402.580	1.615140
402.938	1.615406
403.297	1.614760
403.655	1.613794
404.013	1.613534
404.371	1.612665
404.729	1.611906
405.087	1.612275
405.444	1.612518
405.802	1.611718
406.160	1.613141
406.518	1.612848
406.876	1.613193
407.233	1.612722
407.591	1.613375
407.949	1.614034
408.306	1.614127
408.664	1.613903
409.022	1.614446
409.379	1.614220
409.737	1.613671
410.094	1.613689
410.451	1.613348
410.809	1.613666
411.166	1.613248
411.523	1.613637
411.881	1.613875
412.238	1.614829
412.595	1.613667
412.952	1.613238
413.310	1.614095
413.667	1.614788
414.024	1.615277
414.381	1.615400
414.738	1.615008
415.095	1.614373
415.452	1.614174
415.809	1.613622
416.165	1.613605
416.522	1.612905
416.879	1.612387
417.236	1.612711
417.593	1.612829
417.949	1.611778
418.306	1.611606
418.663	1.613296
419.019	1.612832
419.376	1.612506
419.732	1.610922
420.089	1.611902
420.445	1.611749
420.802	1.611340
421.158	1.610230
421.514	1.609335
421.871	1.608844
422.227	1.608032
422.583	1.608090
422.939	1.606714
423.295	1.605993
423.652	1.604676
424.008	1.603952
424.364	1.603303
424.720	1.602616
425.076	1.602558
425.432	1.602635
425.788	1.602661
426.143	1.600884
426.499	1.600068
426.855	1.600176
427.211	1.600412
427.567	1.599492
427.922	1.599089
428.278	1.596986
428.634	1.596409
428.989	1.595705
429.345	1.594674
429.700	1.594915
430.056	1.594565
430.411	1.595458
430.767	1.595519
431.122	1.595339
431.478	1.594744
431.833	1.594409
432.188	1.592988
432.543	1.592097
432.899	1.591022
433.254	1.589090
433.609	1.588353
433.964	1.588030
434.319	1.586644
434.674	1.585430
435.029	1.584550
435.384	1.583023
435.739	1.583057
436.094	1.582319
436.449	1.581942
436.804	1.580960
437.158	1.579566
437.513	1.578445
437.868	1.576207
438.223	1.574733
438.577	1.573025
438.932	1.572406
439.287	1.571303
439.641	1.570783
439.996	1.569098
440.350	1.567775
440.704	1.567312
441.059	1.566329
441.413	1.564168
441.768	1.562004
442.122	1.560558
442.476	1.558949
442.830	1.557578
443.185	1.556230
443.539	1.554031
443.893	1.551679
444.247	1.549973
444.601	1.548542
444.955	1.546292
445.309	1.544329
445.663	1.542057
446.017	1.540726
446.371	1.537784
446.724	1.535300
447.078	1.533237
447.432	1.530979
447.786	1.528763
448.139	1.525194
448.493	1.522150
448.847	1.519596
449.200	1.517924
449.554	1.515652
449.907	1.513016
450.261	1.510167
450.614	1.507324
450.968	1.504351
451.321	1.501593
451.674	1.498617
452.027	1.495265
452.381	1.492361
452.734	1.489704
453.087	1.486884
453.440	1.483073
453.793	1.480145
454.146	1.477041
454.499	1.474086
454.852	1.470806
455.205	1.467798
455.558	1.465476
455.911	1.462778
456.264	1.459464
456.617	1.455834
456.970	1.452802
457.322	1.449807
457.675	1.447158
458.028	1.444500
458.380	1.442301
458.733	1.439704
459.086	1.437305
459.438	1.435089
459.791	1.432399
460.143	1.429445
460.496	1.426663
460.848	1.423747
461.200	1.421277
461.553	1.418566
461.905	1.415568
462.257	1.412614
462.609	1.409671
462.961	1.406355
463.314	1.403172
463.666	1.400820
464.018	1.398025
464.370	1.395110
464.722	1.392485
465.074	1.389062
465.426	1.386361
465.777	1.383504
466.129	1.380660
466.481	1.377548
466.833	1.374537
467.184	1.371314
467.536	1.368148
467.888	1.365207
468.239	1.362558
468.591	1.358987
468.943	1.355233
469.294	1.351588
469.646	1.348298
469.997	1.344169
470.348	1.340817
470.700	1.337616
471.051	1.334680
471.402	1.331706
471.754	1.328317
472.105	1.325441
472.456	1.323089
472.807	1.320063
473.158	1.317465
473.509	1.315080
473.860	1.312710
474.211	1.310156
474.562	1.308203
474.913	1.305900
475.264	1.303114
475.615	1.300675
475.966	1.298500
476.316	1.296269
476.667	1.293799
477.018	1.291310
477.368	1.288883
477.719	1.286512
478.070	1.283959
478.420	1.281180
478.771	1.278723
479.121	1.276377
479.472	1.273817
479.822	1.271211
480.172	1.268864
480.523	1.265914
480.873	1.262817
481.223	1.259654
481.573	1.256995
481.924	1.254257
482.274	1.251634
482.624	1.249444
482.974	1.247335
483.324	1.245467
483.674	1.243781
484.024	1.242034
484.374	1.240246
484.724	1.238626
485.073	1.237006
485.423	1.235301
485.773	1.233635
486.123	1.232040
486.472	1.230407
486.822	1.228741
487.172	1.227132
487.521	1.225459
487.871	1.223956
488.220	1.222340
488.570	1.220444
488.919	1.217874
489.268	1.214833
489.618	1.211593
489.967	1.207863
490.316	1.203702
490.666	1.199336
491.015	1.195396
491.364	1.191600
491.713	1.188409
492.062	1.185684
492.411	1.182751
492.760	1.180221
493.109	1.177534
493.458	1.174878
493.807	1.172209
494.156	1.169502
494.505	1.166744
494.853	1.164022
495.202	1.161375
495.551	1.158733
495.900	1.156179
496.248	1.153585
496.597	1.151015
496.945	1.148501
497.294	1.145921
497.642	1.143195
497.991	1.140462
498.339	1.137501
498.688	1.135227
499.036	1.132817
499.384	1.130092
499.732	1.127631
500.081	1.124870
500.429	1.122239
500.777	1.119620
501.125	1.117113
501.473	1.114616
501.821	1.112050
502.169	1.109534
502.517	1.106966
502.865	1.104593
503.213	1.101963
503.561	1.099543
503.908	1.097180
504.256	1.094739
504.604	1.092262
504.952	1.089803
505.299	1.087388
505.647	1.085170
505.994	1.082501
506.342	1.079845
506.689	1.077370
507.037	1.074795
507.384	1.072362
507.732	1.069987
508.079	1.067484
508.426	1.065283
508.774	1.062844
509.121	1.060754
509.468	1.058681
509.815	1.056456
510.162	1.054048
510.509	1.051944
510.856	1.049708
511.203	1.047432
511.550	1.045132
511.897	1.042849
512.244	1.040814
512.591	1.038535
512.938	1.036454
513.284	1.034468
513.631	1.032369
513.978	1.030333
514.324	1.028217
514.671	1.026130
515.018	1.024104
515.364	1.022081
515.711	1.019859
516.057	1.017579
516.403	1.015444
516.750	1.013190
517.096	1.011300
517.443	1.009236
517.789	1.007120
518.135	1.005154
518.481	1.003343
518.827	1.001387
519.173	0.999453
519.519	0.997331
519.865	0.995449
520.211	0.993550
520.557	0.991523
520.903	0.989607
521.249	0.987645
521.595	0.985771
521.941	0.983916
522.287	0.981633
522.632	0.979580
522.978	0.977550
523.324	0.975773
523.669	0.973832
524.015	0.971769
524.360	0.969537
524.706	0.967684
525.051	0.965898
525.397	0.963956
525.742	0.961988
526.087	0.960167
526.433	0.958454
526.778	0.956836
527.123	0.955143
527.468	0.953037
527.813	0.951422
528.158	0.949640
528.504	0.947613
528.849	0.945499
529.193	0.943443
529.538	0.941741
529.883	0.939704
530.228	0.937525
530.573	0.935653
530.918	0.933538
531.263	0.931707
531.607	0.929745
531.952	0.927796
532.296	0.925849
532.641	0.923931
532.986	0.921713
533.330	0.919587
533.675	0.917642
534.019	0.915432
534.363	0.913385
534.708	0.911404
535.052	0.909214
535.396	0.907105
535.741	0.905197
536.085	0.903187
536.429	0.900994
536.773	0.898693
537.117	0.896531
537.461	0.894265
537.805	0.891800
538.149	0.889336
538.493	0.886668
538.837	0.884177
539.181	0.881614
539.524	0.878857
539.868	0.876218
540.212	0.873674
540.556	0.871180
540.899	0.868362
541.243	0.865821
541.586	0.863069
541.930	0.860369
542.273	0.857591
542.617	0.854850
542.960	0.851827
543.304	0.848834
543.647	0.845819
543.990	0.842866
544.333	0.839798
544.677	0.836890
545.020	0.833756
545.363	0.830668
545.706	0.827585
546.049	0.824581
546.392	0.821465
546.735	0.818443
547.078	0.815167
547.421	0.811942
547.764	0.808579
548.106	0.805143
548.449	0.801552
548.792	0.798063
549.135	0.794515
549.477	0.790919
549.820	0.787493
550.162	0.784028
550.505	0.780523
550.847	0.776913
551.190	0.773032
551.532	0.769028
551.875	0.764761
552.217	0.760584
552.559	0.756552
552.901	0.752579
553.244	0.748483
553.586	0.744590
553.928	0.740657
554.270	0.736962
554.612	0.733300
554.954	0.729407
555.296	0.725544
555.638	0.721573
555.980	0.717310
556.322	0.712865
556.663	0.708293
557.005	0.703496
557.347	0.698916
557.689	0.694354
558.030	0.689931
558.372	0.685454
558.713	0.681046
559.055	0.676619
559.396	0.672119
559.738	0.667445
560.079	0.662892
560.421	0.658402
560.762	0.653903
561.103	0.649504
561.444	0.645117
561.786	0.640667
562.127	0.636430
562.468	0.632056
562.809	0.627659
563.150	0.623128
563.491	0.618473
563.832	0.613613
564.173	0.608652
564.514	0.603625
564.855	0.598413
565.195	0.593097
565.536	0.587773
565.877	0.582577
566.218	0.577501
566.558	0.572542
566.899	0.567777
567.239	0.563122
567.580	0.558764
567.920	0.554731
568.261	0.550941
568.601	0.547241
568.941	0.543751
569.282	0.540398
569.622	0.537137
569.962	0.533831
570.302	0.530582
570.643	0.527453
570.983	0.524423
571.323	0.521477
571.663	0.518529
572.003	0.515594
572.343	0.512670
572.683	0.509615
573.022	0.506433
573.362	0.503186
573.702	0.499884
574.042	0.496661
574.381	0.493448
574.721	0.490295
575.061	0.487228
575.400	0.484290
575.740	0.481450
576.079	0.478660
576.419	0.475738
576.758	0.472708
577.097	0.469632
577.437	0.466465
577.776	0.463254
578.115	0.460085
578.454	0.457050
578.794	0.454276
579.133	0.451742
579.472	0.449336
579.811	0.447094
580.150	0.444831
580.489	0.442544
580.828	0.440147
581.167	0.437668
581.505	0.435233
581.844	0.432806
582.183	0.430377
582.522	0.428013
582.860	0.425742
583.199	0.423527
583.538	0.421430
583.876	0.419363
584.215	0.417269
584.553	0.415126
584.891	0.412931
585.230	0.410683
585.568	0.408369
585.906	0.405985
586.245	0.403692
586.583	0.401553
586.921	0.399637
587.259	0.397948
587.597	0.396242
587.935	0.394467
588.273	0.392570
588.611	0.390434
588.949	0.388210
589.287	0.385944
589.625	0.383685
589.963	0.381471
590.300	0.379338
590.638	0.377296
590.976	0.375283
591.313	0.373207
591.651	0.371123
591.989	0.369121
592.326	0.367226
592.664	0.365456
593.001	0.363804
593.338	0.362269
593.676	0.360864
594.013	0.359430
594.350	0.358027
594.687	0.356725
595.025	0.355513
595.362	0.354225
595.699	0.352850
596.036	0.351445
596.373	0.349985
596.710	0.348486
597.047	0.346978
597.384	0.345477
597.720	0.343972
598.057	0.342464
598.394	0.340998
598.731	0.339594
599.067	0.338209
599.404	0.336805
599.741	0.335454
600.077	0.334191
600.414	0.333017
600.750	0.331904
601.087	0.330859
601.423	0.329763
601.759	0.328632
602.096	0.327456
602.432	0.326330
602.768	0.325199
603.104	0.324006
603.440	0.322855
603.776	0.321748
604.112	0.320630
604.448	0.319586
604.784	0.318588
605.120	0.317598
605.456	0.316663
605.792	0.315709
606.128	0.314730
606.463	0.313813
606.799	0.312871
607.135	0.311917
607.470	0.310961
607.806	0.309982
608.142	0.309012
608.477	0.308104
608.812	0.307191
609.148	0.306339
609.483	0.305409
609.819	0.304542
610.154	0.303649
610.489	0.302708
610.824	0.301825
611.159	0.301022
611.494	0.300155
611.830	0.299361
612.165	0.298671
612.500	0.297950
612.834	0.297229
613.169	0.296482
613.504	0.295694
613.839	0.294925
614.174	0.294126
614.509	0.293311
614.843	0.292524
615.178	0.291803
615.512	0.291137
615.847	0.290474
616.182	0.289815
616.516	0.289198
616.850	0.288529
617.185	0.287912
617.519	0.287278
617.853	0.286618
618.188	0.285778
618.522	0.285008
618.856	0.284230
619.190	0.283473
619.524	0.282730
619.858	0.282015
620.192	0.281385
620.526	0.280771
620.860	0.280162
621.194	0.279527
621.528	0.278940
621.862	0.278384
622.195	0.277858
622.529	0.277177
622.863	0.276564
623.196	0.275946
623.530	0.275378
623.864	0.274794
624.197	0.274293
624.530	0.273762
624.864	0.273242
625.197	0.272850
625.531	0.272376
625.864	0.271847
626.197	0.271268
626.530	0.270738
626.863	0.270121
627.196	0.269436
627.529	0.268773
627.862	0.268120
628.195	0.267517
628.528	0.266886
628.861	0.266255
629.194	0.265653
629.527	0.265148
629.860	0.264645
630.192	0.263991
630.525	0.263346
630.858	0.262798
631.190	0.262169
631.523	0.261579
631.855	0.260875
632.188	0.260186
632.520	0.259603
632.852	0.259024
633.185	0.258406
633.517	0.257763
633.849	0.257154
634.182	0.256746
634.514	0.256364
634.846	0.256006
635.178	0.255609
635.510	0.255167
635.842	0.254801
636.174	0.254363
636.506	0.253940
636.837	0.253514
637.169	0.253146
637.501	0.252766
637.833	0.252425
638.164	0.251981
638.496	0.251477
638.828	0.250984
639.159	0.250452
639.491	0.249857
639.822	0.249179
640.154	0.248478
640.485	0.247842
640.816	0.247283
641.147	0.246577
641.479	0.245825
641.810	0.245173
642.141	0.244509
642.472	0.243852
642.803	0.243234
643.134	0.242567
643.465	0.241919
643.796	0.241261
644.127	0.240745
644.458	0.240315
644.789	0.239921
645.119	0.239714
645.450	0.239769
645.781	0.239890
646.111	0.240042
646.442	0.240007
646.773	0.240015
647.103	0.239873
647.433	0.239672
647.764	0.239439
648.094	0.239206
648.425	0.239070
648.755	0.238923
649.085	0.238718
649.415	0.238600
649.745	0.238390
650.075	0.238310
650.405	0.238113
650.735	0.236389
651.065	0.227209
651.395	0.220776
651.725	0.207398
652.055	0.168890
652.385	0.130702
652.715	0.102002
653.044	0.082672
653.374	0.068799
653.704	0.070162
654.033	0.083719
654.363	0.091522
654.692	0.095903
655.022	0.098381
655.351	0.099825
655.680	0.100646
656.010	0.101069
656.339	0.101227
656.668	0.101235
656.997	0.101152
657.326	0.101014
657.655	0.100800
657.984	0.099495
658.313	0.093758
658.642	0.085439
658.971	0.086619
659.300	0.097593
659.629	0.116803
659.958	0.144187
660.286	0.186474
660.615	0.219043
660.944	0.215685
661.272	0.213171
661.601	0.212906
661.929	0.214718
662.258	0.217737
662.586	0.220673
662.915	0.222743
663.243	0.223875
663.571	0.224143
663.899	0.224187
664.228	0.224055
664.556	0.223844
664.884	0.223572
665.212	0.223338
665.540	0.223120
665.868	0.222950
666.196	0.222717
666.524	0.222427
666.852	0.222139
667.179	0.221907
667.507	0.221745
667.835	0.221704
668.162	0.221650
668.490	0.221503
668.818	0.221400
669.145	0.221351
669.473	0.221406
669.800	0.221453
670.127	0.221414
670.455	0.221454
670.782	0.221389
671.109	0.221207
671.436	0.221179
671.764	0.221085
672.091	0.221029
672.418	0.220917
672.745	0.220776
673.072	0.220662
673.399	0.220561
673.726	0.220482
674.053	0.220305
674.379	0.220102
674.706	0.219932
675.033	0.219632
675.359	0.219353
675.686	0.219088
676.013	0.218878
676.339	0.218615
676.666	0.218281
676.992	0.218109
677.318	0.217953
677.645	0.217878
677.971	0.217790
678.297	0.217646
678.624	0.217505
678.950	0.217285
679.276	0.217149
679.602	0.216919
679.928	0.216712
680.254	0.216428
680.580	0.216154
680.906	0.216085
681.232	0.215978
681.558	0.215947
681.883	0.216074
682.209	0.216180
682.535	0.216153
682.860	0.216063
683.186	0.215954
683.511	0.215810
683.837	0.215526
684.162	0.215362
684.488	0.215146
684.813	0.215005
685.138	0.214790
685.464	0.214613
685.789	0.214422
686.114	0.214236
686.439	0.214126
686.764	0.214015
687.089	0.213910
687.414	0.213771
687.739	0.213608
688.064	0.213409
688.389	0.213165
688.714	0.212833
689.039	0.212435
689.363	0.212148
689.688	0.211864
690.013	0.211614
690.337	0.211428
690.662	0.211323
690.986	0.211191
691.311	0.211000
691.635	0.210794
691.959	0.210655
692.284	0.210442
692.608	0.210261
692.932	0.210170
693.256	0.210168
693.580	0.210242
693.904	0.210314
694.228	0.210354
694.552	0.210332
694.876	0.210362
695.200	0.210177
695.524	0.209896
695.848	0.209606
696.172	0.209251
696.495	0.208831
696.819	0.208526
697.143	0.208168
697.466	0.207866
697.790	0.207483
698.113	0.207169
698.437	0.206907
698.760	0.206661
699.083	0.206559
699.407	0.206486
699.730	0.206320
700.053	0.206059
700.376	0.205664
700.699	0.205187
701.022	0.204720
701.345	0.204144
701.668	0.203404
701.991	0.202753
702.314	0.202125
702.637	0.201598
702.960	0.201164
703.283	0.201000
703.605	0.200763
703.928	0.200763
704.251	0.200846
704.573	0.200919
704.896	0.200879
705.218	0.200786
705.540	0.200619
705.863	0.200162
706.185	0.199684
706.507	0.199129
706.830	0.198586
707.152	0.197997
707.474	0.197534
707.796	0.197035
708.118	0.196625
708.440	0.196380
708.762	0.196207
709.084	0.196008
709.406	0.195816
709.728	0.195652
710.049	0.195365
710.371	0.195100
710.693	0.194653
711.014	0.194111
711.336	0.193658
711.658	0.193300
711.979	0.193002
712.301	0.192768
712.622	0.192655
712.943	0.192504
713.265	0.192339
713.586	0.192121
713.907	0.192090
714.228	0.192031
714.549	0.192077
714.870	0.192084
715.191	0.192098
715.512	0.192103
715.833	0.192195
716.154	0.192099
716.475	0.191937
716.796	0.191710
717.117	0.191294
717.437	0.190929
717.758	0.190574
718.078	0.190130
718.399	0.189752
718.719	0.189341
719.040	0.188925
719.360	0.188647
719.681	0.188415
720.001	0.188296
720.321	0.188290
720.642	0.188139
720.962	0.187935
721.282	0.187787
721.602	0.187589
721.922	0.187438
722.242	0.187284
722.562	0.187068
722.882	0.186925
723.202	0.186811
723.521	0.186700
723.841	0.186721
724.161	0.186710
724.481	0.186713
724.800	0.186687
725.120	0.186621
725.439	0.186610
725.759	0.186585
726.078	0.186660
726.398	0.186638
726.717	0.186700
727.036	0.186775
727.355	0.186871
727.675	0.187075
727.994	0.187235
728.313	0.187454
728.632	0.187544
728.951	0.187574
729.270	0.187477
729.589	0.187376
729.908	0.187229
730.226	0.187078
730.545	0.186968
730.864	0.186780
731.182	0.186624
731.501	0.186561
731.820	0.186586
732.138	0.186501
732.457	0.186359
732.775	0.186109
733.093	0.185993
733.412	0.185856
733.730	0.185651
734.048	0.185406
734.367	0.185106
734.685	0.184733
735.003	0.184287
735.321	0.183901
735.639	0.183571
735.957	0.183331
736.275	0.183181
736.593	0.183157
736.910	0.183075
737.228	0.182930
737.546	0.182832
737.863	0.182634
738.181	0.182301
738.499	0.181918
738.816	0.181671
739.134	0.181507
739.451	0.181404
739.768	0.181187
740.086	0.180911
740.403	0.180685
740.720	0.180525
741.038	0.180258
741.355	0.180003
741.672	0.179776
741.989	0.179466
742.306	0.179088
742.623	0.178747
742.940	0.178289
743.257	0.177639
743.573	0.177156
743.890	0.176683
744.207	0.176206
744.523	0.176002
744.840	0.175861
745.157	0.175652
745.473	0.175322
745.790	0.175118
746.106	0.174869
746.422	0.174740
746.739	0.174631
747.055	0.174431
747.371	0.174272
747.687	0.174238
748.004	0.174267
748.320	0.174333
748.636	0.174331
748.952	0.174360
749.268	0.174419
749.584	0.174550
749.899	0.174624
750.215	0.174644
750.531	0.174685
750.847	0.174838
751.162	0.174852
751.478	0.174860
751.793	0.174816
752.109	0.174827
752.424	0.174767
752.740	0.174757
753.055	0.174860
753.370	0.174975
753.686	0.175319
754.001	0.175696
754.316	0.176025
754.631	0.176319
754.946	0.176482
755.261	0.176704
755.576	0.176867
755.891	0.176873
756.206	0.176824
756.521	0.176808
756.836	0.176862
757.150	0.176928
757.465	0.176927
757.780	0.176999
758.094	0.177045
758.409	0.177134
758.723	0.177220
759.038	0.177242
759.352	0.177233
759.667	0.177149
759.981	0.177045
760.295	0.176815
760.609	0.176548
760.923	0.176366
761.238	0.176104
761.552	0.175938
761.866	0.175766
762.180	0.175675
762.493	0.175668
762.807	0.175551
763.121	0.175430
763.435	0.175174
763.749	0.174845
764.062	0.174613
764.376	0.174273
764.689	0.174061
765.003	0.173889
765.316	0.173786
765.630	0.173811
765.943	0.173763
766.257	0.173705
766.570	0.173556
766.883	0.173314
767.196	0.173028
767.509	0.172666
767.822	0.172339
768.135	0.172079
768.448	0.171738
768.761	0.171300
769.074	0.170959
769.387	0.170691
769.700	0.170443
770.013	0.170302
770.325	0.170259
770.638	0.170167
770.950	0.170054
771.263	0.169840
771.575	0.169544
771.888	0.169099
772.200	0.168628
772.513	0.168206
772.825	0.167738
773.137	0.167446
773.449	0.167177
773.761	0.166913
774.074	0.166616
774.386	0.166376
774.698	0.166027
775.010	0.165728
775.321	0.165602
775.633	0.165429
775.945	0.165390
776.257	0.165367
776.568	0.165330
776.880	0.165195
777.192	0.165160
777.503	0.165152
777.815	0.165277
778.126	0.165430
778.438	0.165707
778.749	0.165913
779.060	0.166042
779.372	0.166237
779.683	0.166354
779.994	0.166477
780.305	0.166579
780.616	0.166680
780.927	0.166782
781.238	0.166741
781.549	0.166892
781.860	0.166931
782.171	0.166954
782.481	0.166964
782.792	0.167014
783.103	0.166968
783.413	0.166968
783.724	0.166847
784.034	0.166858
784.345	0.166722
784.655	0.166552
784.966	0.166347
785.276	0.166295
785.586	0.166247
785.896	0.166144
786.207	0.165934
786.517	0.165943
786.827	0.165846
787.137	0.165767
787.447	0.165633
787.757	0.165657
788.066	0.165537
788.376	0.165496
788.686	0.165413
788.996	0.165457
789.305	0.165314
789.615	0.165332
789.925	0.165327
790.234	0.165363
790.544	0.165360
790.853	0.165434
791.162	0.165521
791.472	0.165727
791.781	0.165733
792.090	0.165786
792.399	0.165848
792.708	0.165776
793.017	0.165561
793.326	0.165467
793.635	0.165292
793.944	0.165145
794.253	0.164968
794.562	0.164721
794.871	0.164572
795.179	0.164458
795.488	0.164267
795.797	0.164114
796.105	0.163955
796.414	0.163872
796.722	0.163691
797.031	0.163465
797.339	0.163071
797.647	0.162688
797.956	0.162098
798.264	0.161491
798.572	0.160957
798.880	0.160445
799.188	0.160085
799.496	0.159675
799.804	0.159427
800.112	0.159398
800.420	0.159356
800.728	0.159195
801.035	0.159066
801.343	0.158763
801.651	0.158165
801.958	0.157872
802.266	0.157800
802.573	0.157850
802.881	0.157837
803.188	0.157847
803.496	0.157875
803.803	0.158151
804.110	0.158277
804.417	0.158282
804.724	0.158291
805.032	0.158281
805.339	0.158099
805.646	0.158083
805.953	0.158044
806.259	0.157970
806.566	0.157676
806.873	0.157581
807.180	0.157480
807.486	0.157486
807.793	0.157407
808.100	0.157625
808.406	0.157560
808.713	0.157513
809.019	0.156843
809.326	0.156385
809.632	0.155901
809.938	0.155199
810.244	0.154506
810.551	0.153961
810.857	0.153535
811.163	0.153277
811.469	0.152999
811.775	0.152783
812.081	0.152621
812.387	0.152452
812.692	0.152291
812.998	0.152216
813.304	0.151923
813.610	0.152032
813.915	0.151923
814.221	0.151876
814.526	0.151935
814.832	0.151966
815.137	0.151677
815.443	0.151909
815.748	0.151768
816.053	0.151776
816.358	0.151750
816.664	0.151646
816.969	0.151458
817.274	0.151348
817.579	0.150982
817.884	0.150773
818.189	0.150563
818.493	0.150370
818.798	0.150524
819.103	0.150310
819.408	0.150153
819.712	0.149995
820.017	0.149617
820.321	0.149259
820.626	0.149146
820.930	0.148708
821.235	0.148381
821.539	0.148171
821.843	0.148109
822.148	0.147974
822.452	0.147837
822.756	0.147705
823.060	0.147565
823.364	0.147719
823.668	0.147600
823.972	0.147547
824.276	0.147445
824.580	0.147502
824.883	0.147647
825.187	0.147546
825.491	0.147624
825.795	0.147293
826.098	0.147365
826.402	0.147280
826.705	0.147360
827.008	0.147133
827.312	0.146928
827.615	0.146561
827.918	0.146241
828.222	0.145713
828.525	0.145288
828.828	0.145195
829.131	0.145367
829.434	0.145108
829.737	0.144401
830.040	0.143916
830.343	0.143547
830.645	0.143277
830.948	0.142980
831.251	0.142326
831.553	0.141564
831.856	0.141130
832.159	0.141447
832.461	0.141059
832.764	0.140855
833.066	0.140375
833.368	0.140233
833.671	0.139942
833.973	0.139817
834.275	0.139741
834.577	0.139724
834.879	0.139717
835.181	0.138851
835.483	0.138181
835.785	0.137842
836.087	0.137689
836.389	0.137267
836.690	0.136606
836.992	0.135575
837.294	0.134466
837.595	0.133118
837.897	0.132323
838.198	0.131135
838.500	0.130005
838.801	0.129051
839.103	0.128123
839.404	0.127419
839.705	0.126625
840.006	0.126052
840.307	0.125771
840.608	0.124973
840.910	0.124888
841.210	0.124827
841.511	0.125336
841.812	0.125057
842.113	0.124884
842.414	0.123746
842.715	0.123164
843.015	0.122153
843.316	0.121863
843.616	0.121204
843.917	0.121231
844.217	0.120982
844.518	0.120399
844.818	0.119393
845.118	0.119161
845.419	0.118918
845.719	0.119048
846.019	0.118156
846.319	0.118486
846.619	0.117753
846.919	0.118261
847.219	0.118160
847.519	0.118145
847.819	0.118036
848.118	0.117526
848.418	0.116853
848.718	0.117058
849.017	0.116984
849.317	0.117316
849.616	0.118066
849.916	0.119153
850.215	0.120370
850.515	0.121267
850.814	0.122292
851.113	0.123348
851.412	0.123971
851.712	0.123954
852.011	0.123824
852.310	0.124528
852.609	0.124683
852.908	0.125002
853.206	0.125299
853.505	0.125560
853.804	0.125905
854.103	0.125981
854.401	0.126226
854.700	0.126321
854.999	0.126230
855.297	0.126364
855.595	0.126564
855.894	0.126267
856.192	0.126007
856.491	0.125420
856.789	0.124814
857.087	0.123988
857.385	0.123010
857.683	0.122100
857.981	0.121718
858.279	0.121468
858.577	0.120385
858.875	0.119530
859.173	0.118878
859.471	0.117992
859.768	0.117166
860.066	0.116076
860.363	0.115161
860.661	0.114051
860.959	0.114037
861.256	0.114244
861.553	0.114182
861.851	0.113997
862.148	0.113360
862.445	0.112959
862.742	0.112504
863.039	0.111226
863.337	0.110652
863.634	0.110387
863.931	0.109963
864.227	0.109711
864.524	0.109034
864.821	0.109285
865.118	0.108516
865.415	0.108115
865.711	0.107571
866.008	0.106554
866.304	0.106240
866.601	0.105803
866.897	0.105883
867.194	0.105297
867.490	0.104351
867.786	0.103973
868.082	0.102790
868.379	0.102731
868.675	0.102117
868.971	0.101814
869.267	0.102455
869.563	0.102963
869.859	0.102383
870.154	0.102159
870.450	0.102397
870.746	0.102291
871.042	0.102017
871.337	0.102807
871.633	0.102801
871.928	0.103289
872.224	0.103298
872.519	0.102098
872.815	0.102395
873.110	0.102883
873.405	0.102723
873.700	0.102790
873.995	0.102166
874.291	0.102404
874.586	0.102224
874.881	0.102720
875.175	0.102783
875.470	0.103057
875.765	0.102865
876.060	0.103682
876.355	0.104813
876.649	0.104729
876.944	0.105227
877.238	0.104468
877.533	0.104368
877.827	0.104243
878.122	0.104543
878.416	0.104725
878.710	0.105838
879.005	0.105098
879.299	0.104298
879.593	0.103952
879.887	0.104009
880.181	0.103597
880.475	0.103999
880.769	0.103841
881.063	0.103466
881.356	0.104302
881.650	0.103943
881.944	0.103478
882.238	0.090994
882.531	0.102863
882.825	0.098840
883.118	0.085510
883.412	0.107007
883.705	0.093601
883.998	0.100303
884.291	0.120784
884.585	0.097306
884.878	0.092011
>>>>>>>>>> END of Data <<<<<<<<<<
>>>>>>>>>> Raw Data Start <<<<<<<<
190.664	-408
191.040	8
191.415	8
191.791	6
192.166	7
192.542	11
192.917	8
193.293	10
193.668	5
194.044	9
194.419	-10
194.794	10
195.170	11
195.545	11
195.920	11
196.296	11
196.671	12
197.046	12
197.421	13
197.796	13
198.171	14
198.546	14
198.922	14
199.297	14
199.672	15
200.047	15
200.422	16
200.796	16
201.171	16
201.546	16
201.921	16
202.296	16
202.671	16
203.045	16
203.420	16
203.795	17
204.170	17
204.544	17
204.919	17
205.294	17
205.668	16
206.043	16
206.417	16
206.792	16
207.166	16
207.541	15
207.915	15
208.289	15
208.664	15
209.038	15
209.412	15
209.787	14
210.161	14
210.535	14
210.909	15
211.284	14
211.658	14
212.032	14
212.406	14
212.780	14
213.154	14
213.528	14
213.902	14
214.276	14
214.650	14
215.024	14
215.398	14
215.772	14
216.145	14
216.519	14
216.893	14
217.267	14
217.640	15
218.014	15
218.388	15
218.761	14
219.135	15
219.508	15
219.882	15
220.256	14
220.629	14
221.003	14
221.376	14
221.749	15
222.123	15
222.496	15
222.869	15
223.243	15
223.616	15
223.989	15
224.362	15
224.736	16
225.109	16
225.482	16
225.855	16
226.228	16
226.601	16
226.974	16
227.347	16
227.720	16
228.093	16
228.466	16
228.839	16
229.212	16
229.585	15
229.957	15
230.330	16
230.703	15
231.076	16
231.448	16
231.821	16
232.194	16
232.566	15
232.939	16
233.311	15
233.684	16
234.056	16
234.429	16
234.801	15
235.174	15
235.546	15
235.918	15
236.291	15
236.663	15
237.035	15
237.408	16
237.780	16
238.152	16
238.524	16
238.896	16
239.268	16
239.641	16
240.013	16
240.385	16
240.757	16
241.129	16
241.500	16
241.872	16
242.244	16
242.616	16
242.988	15
243.360	16
243.731	16
244.103	16
244.475	16
244.847	16
245.218	16
245.590	16
245.961	16
246.333	15
246.705	15
247.076	15
247.448	15
247.819	16
248.190	16
248.562	16
248.933	16
249.305	16
249.676	16
250.047	16
250.418	16
250.790	17
251.161	16
251.532	17
251.903	17
252.274	17
252.645	17
253.016	17
253.387	17
253.758	18
254.129	18
254.500	18
254.871	18
255.242	18
255.613	18
255.984	18
256.355	18
256.725	18
257.096	18
257.467	17
257.838	17
258.208	17
258.579	17
258.949	17
259.320	18
259.690	17
260.061	18
260.431	17
260.802	17
261.172	17
261.543	17
261.913	17
262.283	17
262.654	17
263.024	17
263.394	17
263.764	17
264.135	17
264.505	18
264.875	18
265.245	18
265.615	17
265.985	18
266.355	17
266.725	17
267.095	17
267.465	17
267.835	17
268.205	17
268.575	17
268.944	17
269.314	17
269.684	16
270.054	16
270.423	16
270.793	16
271.163	16
271.532	16
271.902	16
272.271	16
272.641	16
273.010	16
273.380	17
273.749	17
274.119	17
274.488	17
274.857	17
275.227	17
275.596	17
275.965	17
276.335	17
276.704	17
277.073	17
277.442	17
277.811	17
278.180	17
278.549	17
278.918	18
279.287	18
279.656	18
280.025	18
280.394	18
280.763	18
281.132	18
281.501	18
281.869	18
282.238	18
282.607	18
282.976	18
283.344	18
283.713	18
284.081	18
284.450	18
284.819	18
285.187	18
285.556	19
285.924	19
286.292	19
286.661	18
287.029	18
287.398	18
287.766	18
288.134	18
288.502	18
288.871	18
289.239	18
289.607	18
289.975	18
290.343	18
290.711	18
291.079	18
291.447	18
291.815	18
292.183	18
292.551	18
292.919	18
293.287	18
293.655	18
294.022	18
294.390	18
294.758	18
295.126	18
295.493	17
295.861	17
296.229	17
296.596	17
296.964	17
297.331	17
297.699	17
298.066	17
298.434	18
298.801	18
299.168	17
299.536	17
299.903	17
300.270	17
300.638	17
301.005	17
301.372	18
301.739	18
302.106	18
302.473	18
302.840	18
303.207	18
303.574	18
303.941	18
304.308	18
304.675	18
305.042	18
305.409	18
305.776	18
306.143	18
306.509	18
306.876	18
307.243	18
307.610	18
307.976	18
308.343	18
308.709	18
309.076	18
309.442	18
309.809	18
310.175	18
310.542	18
310.908	19
311.275	19
311.641	19
312.007	19
312.373	19
312.740	19
313.106	20
313.472	19
313.838	20
314.204	20
314.570	21
314.936	20
315.302	21
315.668	21
316.034	21
316.400	21
316.766	22
317.132	21
317.498	21
317.864	22
318.230	22
318.595	22
318.961	22
319.327	22
319.692	23
320.058	23
320.424	24
320.789	24
321.155	25
321.520	26
321.886	26
322.251	26
322.616	27
322.982	27
323.347	28
323.712	29
324.078	30
324.443	31
324.808	32
325.173	33
325.539	33
325.904	34
326.269	35
326.634	36
326.999	37
327.364	38
327.729	39
328.094	40
328.459	41
328.823	41
329.188	42
329.553	43
329.918	44
330.283	44
330.647	45
331.012	46
331.377	46
331.741	47
332.106	48
332.470	49
332.835	50
333.199	51
333.564	51
333.928	52
334.293	53
334.657	54
335.021	55
335.386	56
335.750	57
336.114	58
336.478	59
336.843	60
337.207	61
337.571	62
337.935	63
338.299	64
338.663	65
339.027	66
339.391	67
339.755	69
340.119	70
340.483	71
340.846	71
341.210	72
341.574	73
341.938	74
342.301	75
342.665	76
343.029	77
343.392	78
343.756	79
344.119	80
344.483	81
344.846	82
345.210	83
345.573	85
345.937	85
346.300	86
346.663	87
347.027	88
347.390	89
347.753	90
348.116	91
348.479	92
348.843	93
349.206	94
349.569	95
349.932	96
350.295	97
350.658	97
351.021	98
351.383	98
351.746	99
352.109	100
352.472	101
352.835	102
353.197	103
353.560	103
353.923	104
354.285	105
354.648	106
355.011	106
355.373	107
355.736	108
356.098	109
356.461	109
356.823	110
357.185	110
357.548	111
357.910	112
358.272	113
358.635	114
358.997	114
359.359	115
359.721	115
360.083	116
360.445	116
360.807	116
361.169	117
361.531	118
361.893	118
362.255	118
362.617	119
362.979	119
363.341	120
363.703	121
364.064	121
364.426	122
364.788	122
365.149	123
365.511	123
365.873	123
366.234	123
366.596	124
366.957	124
367.319	124
367.680	125
368.042	125
368.403	126
368.764	126
369.126	126
369.487	127
369.848	127
370.209	127
370.570	127
370.931	127
371.293	127
371.654	127
372.015	127
372.376	127
372.737	127
373.098	127
373.458	127
373.819	128
374.180	128
374.541	128
374.902	128
375.263	129
375.623	129
375.984	129
376.345	130
376.705	130
377.066	130
377.426	130
377.787	131
378.147	131
378.508	131
378.868	131
379.228	132
379.589	133
379.949	133
380.309	133
380.670	133
381.030	133
381.390	134
381.750	134
382.110	134
382.470	134
382.830	134
383.190	133
383.550	134
383.910	134
384.270	134
384.630	134
384.990	135
385.350	135
385.709	136
386.069	136
386.429	136
386.788	136
387.148	136
387.508	136
387.867	136
388.227	137
388.586	137
388.946	137
389.305	137
389.665	138
390.024	139
390.383	139
390.743	140
391.102	140
391.461	141
391.820	141
392.179	141
392.539	141
392.898	141
393.257	141
393.616	141
393.975	141
394.334	142
394.693	142
395.051	143
395.410	144
395.769	144
396.128	145
396.487	145
396.845	145
397.204	145
397.563	145
397.921	145
398.280	145
398.638	145
398.997	145
399.355	146
399.714	146
400.072	146
400.431	146
400.789	146
401.147	147
401.506	147
401.864	147
402.222	148
402.580	148
402.938	147
403.297	147
403.655	147
404.013	147
404.371	147
404.729	147
405.087	146
405.444	146
405.802	147
406.160	146
406.518	147
406.876	146
407.233	147
407.591	146
407.949	146
408.306	146
408.664	146
409.022	146
409.379	146
409.737	146
410.094	146
410.451	146
410.809	146
411.166	147
411.523	147
411.881	147
412.238	147
412.595	147
412.952	147
413.310	147
413.667	147
414.024	147
414.381	147
414.738	147
415.095	147
415.452	147
415.809	148
416.165	148
416.522	148
416.879	148
417.236	149
417.593	149
417.949	151
418.306	152
418.663	152
419.019	154
419.376	155
419.732	157
420.089	158
420.445	159
420.802	160
421.158	161
421.514	162
421.871	163
422.227	164
422.583	164
422.939	165
423.295	166
423.652	167
424.008	167
424.364	168
424.720	168
425.076	168
425.432	167
425.788	167
426.143	168
426.499	168
426.855	168
427.211	168
427.567	169
427.922	169
428.278	170
428.634	170
428.989	170
429.345	170
429.700	170
430.056	171
430.411	171
430.767	171
431.122	172
431.478	172
431.833	173
432.188	173
432.543	174
432.899	174
433.254	174
433.609	174
433.964	173
434.319	173
434.674	173
435.029	173
435.384	173
435.739	173
436.094	174
436.449	174
436.804	175
437.158	177
437.513	178
437.868	180
438.223	182
438.577	184
438.932	186
439.287	188
439.641	190
439.996	192
440.350	194
440.704	196
441.059	198
441.413	200
441.768	203
442.122	205
442.476	207
442.830	209
443.185	210
443.539	213
443.893	215
444.247	216
444.601	217
444.955	219
445.309	219
445.663	220
446.017	220
446.371	220
446.724	221
447.078	221
447.432	221
447.786	220
448.139	221
448.493	221
448.847	221
449.200	220
449.554	219
449.907	219
450.261	219
450.614	219
450.968	219
451.321	218
451.674	218
452.027	218
452.381	219
452.734	219
453.087	219
453.440	220
453.793	221
454.146	222
454.499	223
454.852	225
455.205	227
455.558	228
455.911	230
456.264	233
456.617	235
456.970	237
457.322	239
457.675	241
458.028	242
458.380	244
458.733	245
459.086	246
459.438	247
459.791	249
460.143	251
460.496	254
460.848	257
461.200	260
461.553	263
461.905	266
462.257	269
462.609	272
462.961	275
463.314	277
463.666	279
464.018	280
464.370	282
464.722	284
465.074	287
465.426	289
465.777	291
466.129	293
466.481	294
466.833	295
467.184	296
467.536	297
467.888	297
468.239	296
468.591	297
468.943	297
469.294	298
469.646	299
469.997	300
470.348	302
470.700	305
471.051	308
471.402	312
471.754	317
472.105	321
472.456	326
472.807	332
473.158	338
473.509	344
473.860	351
474.211	358
474.562	365
474.913	373
475.264	381
475.615	390
475.966	398
476.316	405
476.667	413
477.018	422
477.368	430
477.719	439
478.070	447
478.420	455
478.771	463
479.121	470
479.472	478
479.822	486
480.172	495
480.523	506
480.873	520
481.223	542
481.573	574
481.924	615
482.274	661
482.624	709
482.974	757
483.324	800
483.674	833
484.024	855
484.374	871
484.724	881
485.073	889
485.423	895
485.773	901
486.123	907
486.472	913
486.822	918
487.172	923
487.521	927
487.871	929
488.220	927
488.570	917
488.919	896
489.268	868
489.618	833
489.967	797
490.316	759
490.666	727
491.015	704
491.364	691
491.713	685
492.062	683
492.411	685
492.760	688
493.109	692
493.458	695
493.807	698
494.156	701
494.505	704
494.853	708
495.202	711
495.551	716
495.900	721
496.248	726
496.597	731
496.945	736
497.294	741
497.642	746
497.991	752
498.339	760
498.688	767
499.036	773
499.384	780
499.732	786
500.081	792
500.429	797
500.777	801
501.125	806
501.473	810
501.821	815
502.169	819
502.517	824
502.865	826
503.213	829
503.561	831
503.908	833
504.256	834
504.604	836
504.952	836
505.299	837
505.647	836
505.994	835
506.342	834
506.689	833
507.037	832
507.384	832
507.732	832
508.079	833
508.426	833
508.774	834
509.121	834
509.468	833
509.815	833
510.162	833
510.509	833
510.856	832
511.203	832
511.550	831
511.897	831
512.244	831
512.591	830
512.938	830
513.284	829
513.631	828
513.978	827
514.324	826
514.671	825
515.018	823
515.364	822
515.711	821
516.057	820
516.403	819
516.750	819
517.096	817
517.443	815
517.789	813
518.135	811
518.481	809
518.827	808
519.173	806
519.519	805
519.865	803
520.211	802
520.557	801
520.903	801
521.249	800
521.595	800
521.941	799
522.287	799
522.632	799
522.978	799
523.324	799
523.669	799
524.015	800
524.360	803
524.706	806
525.051	810
525.397	815
525.742	820
526.087	825
526.433	830
526.778	834
527.123	838
527.468	841
527.813	844
528.158	847
528.504	851
528.849	856
529.193	863
529.538	870
529.883	880
530.228	890
530.573	902
530.918	914
531.263	926
531.607	937
531.952	947
532.296	956
532.641	963
532.986	969
533.330	975
533.675	981
534.019	989
534.363	999
534.708	1009
535.052	1022
535.396	1036
535.741	1049
536.085	1060
536.429	1071
536.773	1081
537.117	1088
537.461	1095
537.805	1101
538.149	1108
538.493	1116
538.837	1124
539.181	1133
539.524	1145
539.868	1158
540.212	1172
540.556	1187
540.899	1204
541.243	1218
541.586	1231
541.930	1242
542.273	1250
542.617	1257
542.960	1264
543.304	1274
543.647	1285
543.990	1299
544.333	1314
544.677	1330
545.020	1346
545.363	1359
545.706	1370
546.049	1379
546.392	1385
546.735	1389
547.078	1392
547.421	1395
547.764	1400
548.106	1405
548.449	1411
548.792	1421
549.135	1433
549.477	1447
549.820	1462
550.162	1474
550.505	1485
550.847	1494
551.190	1502
551.532	1509
551.875	1516
552.217	1524
552.559	1533
552.901	1544
553.244	1557
553.586	1572
553.928	1587
554.270	1600
554.612	1612
554.954	1623
555.296	1632
555.638	1642
555.980	1652
556.322	1665
556.663	1680
557.005	1701
557.347	1724
557.689	1750
558.030	1774
558.372	1798
558.713	1820
559.055	1842
559.396	1863
559.738	1887
560.079	1911
560.421	1937
560.762	1967
561.103	2000
561.444	2035
561.786	2073
562.127	2112
562.468	2155
562.809	2201
563.150	2252
563.491	2307
563.832	2368
564.173	2436
564.514	2515
564.855	2608
565.195	2721
565.536	2856
565.877	3012
566.218	3189
566.558	3388
566.899	3606
567.239	3844
567.580	4093
567.920	4349
568.261	4609
568.601	4877
568.941	5154
569.282	5440
569.622	5737
569.962	6047
570.302	6379
570.643	6722
570.983	7070
571.323	7408
571.663	7737
572.003	8052
572.343	8350
572.683	8632
573.022	8922
573.362	9227
573.702	9543
574.042	9861
574.381	10168
574.721	10464
575.061	10750
575.400	11013
575.740	11250
576.079	11463
576.419	11677
576.758	11918
577.097	12197
577.437	12502
577.776	12827
578.115	13167
578.454	13512
578.794	13830
579.133	14083
579.472	14268
579.811	14387
580.150	14447
580.489	14460
580.828	14453
581.167	14449
581.505	14455
581.844	14467
582.183	14479
582.522	14500
582.860	14527
583.199	14555
583.538	14561
583.876	14522
584.215	14424
584.553	14258
584.891	14031
585.230	13744
585.568	13423
585.906	13095
586.245	12797
586.583	12541
586.921	12329
587.259	12135
587.597	11941
587.935	11740
588.273	11533
588.611	11343
588.949	11177
589.287	11041
589.625	10937
589.963	10860
590.300	10801
590.638	10748
590.976	10687
591.313	10613
591.651	10543
591.989	10482
592.326	10436
592.664	10398
593.001	10367
593.338	10354
593.676	10353
594.013	10372
594.350	10423
594.687	10501
595.025	10585
595.362	10664
595.699	10726
596.036	10770
596.373	10792
596.710	10787
597.047	10762
597.384	10729
597.720	10689
598.057	10660
598.394	10642
598.731	10637
599.067	10649
599.404	10680
599.741	10735
600.077	10808
600.414	10887
600.750	10969
601.087	11035
601.423	11072
601.759	11085
602.096	11078
602.432	11058
602.768	11020
603.104	10964
603.440	10891
603.776	10812
604.112	10726
604.448	10637
604.784	10541
605.120	10438
605.456	10338
605.792	10233
606.128	10122
606.463	10008
606.799	9891
607.135	9786
607.470	9683
607.806	9579
608.142	9479
608.477	9382
608.812	9288
609.148	9193
609.483	9094
609.819	8992
610.154	8894
610.489	8805
610.824	8727
611.159	8661
611.494	8595
611.830	8538
612.165	8481
612.500	8417
612.834	8342
613.169	8256
613.504	8160
613.839	8053
614.174	7932
614.509	7808
614.843	7685
615.178	7568
615.512	7450
615.847	7336
616.182	7222
616.516	7106
616.850	6985
617.185	6857
617.519	6727
617.853	6588
618.188	6444
618.522	6312
618.856	6200
619.190	6102
619.524	6017
619.858	5949
620.192	5896
620.526	5849
620.860	5803
621.194	5759
621.528	5715
621.862	5671
622.195	5618
622.529	5561
622.863	5502
623.196	5443
623.530	5382
623.864	5322
624.197	5260
624.530	5200
624.864	5146
625.197	5089
625.531	5026
625.864	4948
626.197	4866
626.530	4777
626.863	4676
627.196	4567
627.529	4456
627.862	4346
628.195	4237
628.528	4129
628.861	4025
629.194	3932
629.527	3843
629.860	3755
630.192	3669
630.525	3588
630.858	3512
631.190	3441
631.523	3372
631.855	3307
632.188	3251
632.520	3199
632.852	3149
633.185	3099
633.517	3050
633.849	3007
634.182	2966
634.514	2927
634.846	2892
635.178	2862
635.510	2835
635.842	2811
636.174	2787
636.506	2763
636.837	2740
637.169	2717
637.501	2692
637.833	2665
638.164	2635
638.496	2601
638.828	2563
639.159	2520
639.491	2474
639.822	2426
640.154	2377
640.485	2328
640.816	2280
641.147	2232
641.479	2187
641.810	2142
642.141	2099
642.472	2057
642.803	2015
643.134	1975
643.465	1941
643.796	1914
644.127	1895
644.458	1885
644.789	1885
645.119	1895
645.450	1912
645.781	1932
646.111	1951
646.442	1968
646.773	1982
647.103	1993
647.433	2003
647.764	2013
648.094	2027
648.425	2043
648.755	2064
649.085	2087
649.415	2111
649.745	2137
650.075	2163
650.405	2193
650.735	2257
651.065	2713
651.395	4111
651.725	6440
652.055	9433
652.385	12912
652.715	16582
653.044	20254
653.374	23929
653.704	26869
654.033	28971
654.363	30443
654.692	31433
655.022	32088
655.351	32523
655.680	32795
656.010	32945
656.339	33014
656.668	33034
656.997	33029
657.326	33006
657.655	32937
657.984	32467
658.313	31049
658.642	28691
658.971	25662
659.300	22143
659.629	18432
659.958	14722
660.286	11011
660.615	8042
660.944	5916
661.272	4424
661.601	3414
661.929	2737
662.258	2277
662.586	1975
662.915	1792
663.243	1685
663.571	1626
663.899	1590
664.228	1568
664.556	1553
664.884	1544
665.212	1536
665.540	1531
665.868	1529
666.196	1528
666.524	1528
666.852	1530
667.179	1536
667.507	1548
667.835	1565
668.162	1588
668.490	1616
668.818	1650
669.145	1685
669.473	1720
669.800	1752
670.127	1781
670.455	1805
670.782	1825
671.109	1843
671.436	1858
671.764	1871
672.091	1881
672.418	1890
672.745	1898
673.072	1905
673.399	1914
673.726	1923
674.053	1930
674.379	1933
674.706	1933
675.033	1932
675.359	1931
675.686	1927
676.013	1925
676.339	1927
676.666	1933
676.992	1947
677.318	1967
677.645	1990
677.971	2011
678.297	2030
678.624	2049
678.950	2068
679.276	2084
679.602	2101
679.928	2118
680.254	2139
680.580	2166
680.906	2200
681.232	2242
681.558	2286
681.883	2330
682.209	2370
682.535	2408
682.860	2442
683.186	2472
683.511	2495
683.837	2511
684.162	2522
684.488	2532
684.813	2542
685.138	2551
685.464	2559
685.789	2566
686.114	2572
686.439	2581
686.764	2591
687.089	2598
687.414	2599
687.739	2592
688.064	2577
688.389	2558
688.714	2536
689.039	2511
689.363	2485
689.688	2456
690.013	2428
690.337	2403
690.662	2382
690.986	2364
691.311	2345
691.635	2327
691.959	2309
692.284	2297
692.608	2294
692.932	2298
693.256	2305
693.580	2314
693.904	2326
694.228	2340
694.552	2354
694.876	2360
695.200	2359
695.524	2349
695.848	2335
696.172	2317
696.495	2298
696.819	2278
697.143	2257
697.466	2235
697.790	2217
698.113	2204
698.437	2198
698.760	2197
699.083	2195
699.407	2189
699.730	2178
700.053	2161
700.376	2137
700.699	2104
701.022	2061
701.345	2014
701.668	1971
701.991	1935
702.314	1909
702.637	1897
702.960	1901
703.283	1920
703.605	1953
703.928	2000
704.251	2052
704.573	2105
704.896	2152
705.218	2191
705.540	2222
705.863	2248
706.185	2269
706.507	2288
706.830	2305
707.152	2322
707.474	2341
707.796	2363
708.118	2385
708.440	2406
708.762	2425
709.084	2440
709.406	2448
709.728	2450
710.049	2446
710.371	2436
710.693	2421
711.014	2404
711.336	2387
711.658	2372
711.979	2358
712.301	2345
712.622	2332
712.943	2315
713.265	2296
713.586	2276
713.907	2256
714.228	2239
714.549	2225
714.870	2215
715.191	2211
715.512	2209
715.833	2206
716.154	2200
716.475	2190
716.796	2177
717.117	2157
717.437	2133
717.758	2106
718.078	2079
718.399	2052
718.719	2028
719.040	2007
719.360	1991
719.681	1979
720.001	1972
720.321	1967
720.642	1964
720.962	1966
721.282	1971
721.602	1977
721.922	1984
722.242	1993
722.562	2006
722.882	2022
723.202	2036
723.521	2049
723.841	2062
724.161	2076
724.481	2089
724.800	2104
725.120	2122
725.439	2144
725.759	2169
726.078	2197
726.398	2232
726.717	2274
727.036	2323
727.355	2374
727.675	2423
727.994	2471
728.313	2516
728.632	2555
728.951	2588
729.270	2616
729.589	2643
729.908	2675
730.226	2711
730.545	2751
730.864	2795
731.182	2842
731.501	2890
731.820	2934
732.138	2974
732.457	3009
732.775	3041
733.093	3067
733.412	3083
733.730	3087
734.048	3081
734.367	3067
734.685	3049
735.003	3029
735.321	3010
735.639	2995
735.957	2983
736.275	2971
736.593	2954
736.910	2929
737.228	2894
737.546	2850
737.863	2798
738.181	2741
738.499	2681
738.816	2621
739.134	2562
739.451	2502
739.768	2442
740.086	2384
740.403	2330
740.720	2280
741.038	2234
741.355	2188
741.672	2143
741.989	2098
742.306	2051
742.623	2002
742.940	1954
743.257	1911
743.573	1872
743.890	1841
744.207	1817
744.523	1800
744.840	1788
745.157	1781
745.473	1780
745.790	1786
746.106	1799
746.422	1820
746.739	1845
747.055	1876
747.371	1912
747.687	1949
748.004	1984
748.320	2015
748.636	2043
748.952	2070
749.268	2098
749.584	2124
749.899	2148
750.215	2173
750.531	2201
750.847	2231
751.162	2263
751.478	2293
751.793	2325
752.109	2359
752.424	2395
752.740	2432
753.055	2474
753.370	2524
753.686	2581
754.001	2643
754.316	2709
754.631	2778
754.946	2853
755.261	2930
755.576	3006
755.891	3079
756.206	3152
756.521	3228
756.836	3305
757.150	3379
757.465	3445
757.780	3501
758.094	3549
758.409	3585
758.723	3608
759.038	3618
759.352	3619
759.667	3609
759.981	3591
760.295	3573
760.609	3559
760.923	3550
761.238	3545
761.552	3541
761.866	3536
762.180	3529
762.493	3509
762.807	3473
763.121	3417
763.435	3348
763.749	3271
764.062	3199
764.376	3139
764.689	3097
765.003	3074
765.316	3070
765.630	3079
765.943	3096
766.257	3117
766.570	3134
766.883	3139
767.196	3132
767.509	3113
767.822	3083
768.135	3044
768.448	3003
768.761	2960
769.074	2922
769.387	2893
769.700	2875
770.013	2864
770.325	2854
770.638	2841
770.950	2817
771.263	2780
771.575	2728
771.888	2662
772.200	2584
772.513	2500
772.825	2411
773.137	2320
773.449	2230
773.761	2143
774.074	2062
774.386	1990
774.698	1930
775.010	1881
775.321	1845
775.633	1821
775.945	1807
776.257	1799
776.568	1796
776.880	1802
777.192	1815
777.503	1834
777.815	1858
778.126	1889
778.438	1927
778.749	1968
779.060	2007
779.372	2044
779.683	2081
779.994	2113
780.305	2139
780.616	2156
780.927	2168
781.238	2171
781.549	2166
781.860	2152
782.171	2133
782.481	2111
782.792	2088
783.103	2067
783.413	2043
783.724	2017
784.034	1993
784.345	1970
784.655	1950
784.966	1929
785.276	1907
785.586	1885
785.896	1863
786.207	1842
786.517	1818
786.827	1794
787.137	1773
787.447	1751
787.757	1731
788.066	1712
788.376	1693
788.686	1675
788.996	1655
789.305	1637
789.615	1621
789.925	1613
790.234	1610
790.544	1614
790.853	1622
791.162	1631
791.472	1637
791.781	1641
792.090	1638
792.399	1627
792.708	1612
793.017	1595
793.326	1578
793.635	1563
793.944	1548
794.253	1536
794.562	1527
794.871	1522
795.179	1518
795.488	1513
795.797	1505
796.105	1491
796.414	1469
796.722	1439
797.031	1401
797.339	1355
797.647	1303
797.956	1249
798.264	1199
798.572	1157
798.880	1125
799.188	1101
799.496	1084
799.804	1071
800.112	1060
800.420	1052
800.728	1044
801.035	1033
801.343	1021
801.651	1012
801.958	1009
802.266	1013
802.573	1021
802.881	1032
803.188	1045
803.496	1061
803.803	1076
804.110	1090
804.417	1102
804.724	1113
805.032	1123
805.339	1132
805.646	1137
805.953	1140
806.259	1141
806.566	1140
806.873	1135
807.180	1130
807.486	1124
807.793	1117
808.100	1105
808.406	1087
808.713	1062
809.019	1034
809.326	1005
809.632	978
809.938	952
810.244	928
810.551	908
810.857	891
811.163	877
811.469	861
811.775	845
812.081	828
812.387	812
812.692	800
812.998	790
813.304	783
813.610	777
813.915	772
814.221	768
814.526	764
814.832	761
815.137	758
815.443	753
815.748	745
816.053	735
816.358	725
816.664	716
816.969	708
817.274	701
817.579	695
817.884	692
818.189	691
818.493	691
818.798	689
819.103	684
819.408	677
819.712	670
820.017	661
820.321	652
820.626	643
820.930	635
821.235	630
821.539	627
821.843	627
822.148	629
822.452	630
822.756	630
823.060	628
823.364	624
823.668	619
823.972	612
824.276	606
824.580	600
824.883	597
825.187	597
825.491	596
825.795	597
826.098	597
826.402	596
826.705	594
827.008	590
827.312	584
827.615	575
827.918	563
828.222	550
828.525	536
828.828	523
829.131	510
829.434	497
829.737	485
830.040	475
830.343	467
830.645	460
830.948	453
831.251	446
831.553	441
831.856	436
832.159	431
832.461	425
832.764	419
833.066	414
833.368	409
833.671	405
833.973	403
834.275	400
834.577	397
834.879	394
835.181	390
835.483	386
835.785	381
836.087	374
836.389	366
836.690	357
836.992	347
837.294	337
837.595	327
837.897	315
838.198	305
838.500	294
838.801	285
839.103	277
839.404	270
839.705	264
840.006	259
840.307	255
840.608	253
840.910	250
841.210	249
841.511	247
841.812	245
842.113	242
842.414	239
842.715	235
843.015	230
843.316	225
843.616	220
843.917	216
844.217	212
844.518	209
844.818	207
845.118	206
845.419	205
845.719	203
846.019	202
846.319	201
846.619	201
846.919	200
847.219	199
847.519	197
847.819	196
848.118	196
848.418	199
848.718	205
849.017	214
849.317	228
849.616	245
849.916	264
850.215	285
850.515	308
850.814	331
851.113	351
851.412	370
851.712	386
852.011	403
852.310	417
852.609	430
852.908	442
853.206	452
853.505	461
853.804	469
854.103	476
854.401	481
854.700	483
854.999	482
855.297	476
855.595	466
855.894	453
856.192	436
856.491	418
856.789	397
857.087	377
857.385	357
857.683	340
857.981	323
858.279	308
858.577	294
858.875	282
859.173	272
859.471	264
859.768	257
860.066	252
860.363	247
860.661	243
860.959	240
861.256	237
861.553	233
861.851	228
862.148	224
862.445	219
862.742	215
863.039	212
863.337	209
863.634	206
863.931	205
864.227	204
864.524	203
864.821	203
865.118	203
865.415	201
865.711	198
866.008	195
866.304	192
866.601	188
866.897	184
867.194	182
867.490	180
867.786	179
868.082	180
868.379	180
868.675	181
868.971	181
869.267	181
869.563	181
869.859	181
870.154	180
870.450	179
870.746	178
871.042	177
871.337	177
871.633	177
871.928	178
872.224	179
872.519	181
872.815	182
873.110	182
873.405	182
873.700	181
873.995	181
874.291	181
874.586	182
874.881	183
875.175	184
875.470	187
875.765	190
876.060	194
876.355	197
876.649	201
876.944	205
877.238	208
877.533	211
877.827	214
878.122	216
878.416	217
878.710	216
879.005	216
879.299	216
879.593	215
879.887	214
880.181	213
880.475	212
880.769	210
881.063	208
881.356	206
881.650	203
881.944	200
882.238	168
882.531	158
882.825	156
883.118	163
883.412	158
883.705	161
883.998	164
884.291	161
884.585	170
884.878	180
>>>>>>>>>> END of Data <<<<<<<<<<