Date	2021年06月15日火曜日 04時06分47秒
Spectrometers	USB2+H05879
ダーク	使用
リファレンス	使用
積分時間[msec]	10
平均回数	280
ｽﾑｰｼﾞﾝｸﾞ	10
Electrical Dark	USE
ピクセル数	2048
計測モード	吸光度
保存開始波長[nm]	190.664
保存終了波長[nm]	884.878
保存ﾋﾟｯﾁ波長[nm]	全波長

>>>>>>>>>> Data Start <<<<<<<<<<<<
190.664	0.000000
191.040	0.000000
191.415	0.000000
191.791	-2.400566
192.166	-0.350797
192.542	-0.949880
192.917	0.000000
193.293	-0.609616
193.668	-0.366812
194.044	-1.008642
194.419	0.000000
194.794	-1.391602
195.170	-1.305963
195.545	-1.223845
195.920	-1.086997
196.296	-0.981329
196.671	-0.825370
197.046	-0.676349
197.421	-0.618479
197.796	-0.609138
198.171	-0.579854
198.546	-0.533530
198.922	-0.478966
199.297	-0.457691
199.672	-0.437627
200.047	-0.413474
200.422	-0.381884
200.796	-0.371593
201.171	-0.352639
201.546	-0.350628
201.921	-0.344416
202.296	-0.333061
202.671	-0.304678
203.045	-0.289903
203.420	-0.279897
203.795	-0.271995
204.170	-0.262057
204.544	-0.252669
204.919	-0.241153
205.294	-0.238830
205.668	-0.226479
206.043	-0.215470
206.417	-0.222638
206.792	-0.213481
207.166	-0.204442
207.541	-0.198547
207.915	-0.200004
208.289	-0.186221
208.664	-0.186778
209.038	-0.184693
209.412	-0.163717
209.787	-0.150160
210.161	-0.136906
210.535	-0.145268
210.909	-0.126536
211.284	-0.119750
211.658	-0.119295
212.032	-0.122419
212.406	-0.132657
212.780	-0.136137
213.154	-0.132851
213.528	-0.135340
213.902	-0.128637
214.276	-0.120174
214.650	-0.126329
215.024	-0.126643
215.398	-0.126441
215.772	-0.117321
216.145	-0.125771
216.519	-0.124390
216.893	-0.123055
217.267	-0.131667
217.640	-0.136036
218.014	-0.125122
218.388	-0.108983
218.761	-0.118868
219.135	-0.107226
219.508	-0.110241
219.882	-0.109855
220.256	-0.103416
220.629	-0.098661
221.003	-0.107257
221.376	-0.106602
221.749	-0.108769
222.123	-0.116584
222.496	-0.116684
222.869	-0.109228
223.243	-0.102581
223.616	-0.107503
223.989	-0.106217
224.362	-0.102369
224.736	-0.101531
225.109	-0.093938
225.482	-0.090519
225.855	-0.097803
226.228	-0.105920
226.601	-0.106657
226.974	-0.102853
227.347	-0.085432
227.720	-0.085772
228.093	-0.089474
228.466	-0.097946
228.839	-0.086009
229.212	-0.087296
229.585	-0.096472
229.957	-0.094071
230.330	-0.094636
230.703	-0.099017
231.076	-0.106103
231.448	-0.107670
231.821	-0.109820
232.194	-0.107254
232.566	-0.108885
232.939	-0.113537
233.311	-0.118106
233.684	-0.112308
234.056	-0.109157
234.429	-0.103258
234.801	-0.105255
235.174	-0.116351
235.546	-0.115358
235.918	-0.108185
236.291	-0.106652
236.663	-0.109459
237.035	-0.109346
237.408	-0.093866
237.780	-0.076129
238.152	-0.076258
238.524	-0.078057
238.896	-0.072369
239.268	-0.071083
239.641	-0.069770
240.013	-0.062113
240.385	-0.055388
240.757	-0.059073
241.129	-0.056159
241.500	-0.062637
241.872	-0.058851
242.244	-0.055994
242.616	-0.060581
242.988	-0.061998
243.360	-0.052828
243.731	-0.050197
244.103	-0.047855
244.475	-0.049927
244.847	-0.047481
245.218	-0.046792
245.590	-0.052289
245.961	-0.049393
246.333	-0.041412
246.705	-0.044336
247.076	-0.042703
247.448	-0.040803
247.819	-0.044877
248.190	-0.039147
248.562	-0.039438
248.933	-0.040315
249.305	-0.032626
249.676	-0.033059
250.047	-0.038332
250.418	-0.037171
250.790	-0.032686
251.161	-0.035270
251.532	-0.035997
251.903	-0.038183
252.274	-0.035661
252.645	-0.032088
253.016	-0.034073
253.387	-0.043083
253.758	-0.044532
254.129	-0.055258
254.500	-0.049943
254.871	-0.048202
255.242	-0.047958
255.613	-0.054241
255.984	-0.062494
256.355	-0.057767
256.725	-0.054953
257.096	-0.052548
257.467	-0.050752
257.838	-0.049401
258.208	-0.051114
258.579	-0.049431
258.949	-0.049136
259.320	-0.044143
259.690	-0.038883
260.061	-0.030744
260.431	-0.022657
260.802	-0.022419
261.172	-0.009889
261.543	-0.000071
261.913	0.005739
262.283	0.001109
262.654	0.002727
263.024	0.001775
263.394	0.011080
263.764	0.014021
264.135	0.015679
264.505	0.017695
264.875	0.020199
265.245	0.022544
265.615	0.023691
265.985	0.027142
266.355	0.023947
266.725	0.022341
267.095	0.019644
267.465	0.019420
267.835	0.015749
268.205	0.004467
268.575	0.003281
268.944	0.000843
269.314	-0.007812
269.684	-0.008090
270.054	-0.006509
270.423	-0.001909
270.793	0.005085
271.163	0.007399
271.532	0.012541
271.902	0.011187
272.271	0.013840
272.641	0.006121
273.010	-0.002733
273.380	-0.005955
273.749	-0.002708
274.119	0.003345
274.488	0.006657
274.857	0.004543
275.227	0.006560
275.596	0.000420
275.965	0.005852
276.335	0.010604
276.704	0.000818
277.073	0.002261
277.442	0.006019
277.811	0.007507
278.180	0.007038
278.549	0.005436
278.918	0.003105
279.287	0.000948
279.656	0.005624
280.025	0.002937
280.394	0.007022
280.763	0.014030
281.132	0.023119
281.501	0.024445
281.869	0.018406
282.238	0.018699
282.607	0.020444
282.976	0.024115
283.344	0.034377
283.713	0.033759
284.081	0.032262
284.450	0.040190
284.819	0.041600
285.187	0.043541
285.556	0.051652
285.924	0.052715
286.292	0.046448
286.661	0.044824
287.029	0.041290
287.398	0.041089
287.766	0.037517
288.134	0.034392
288.502	0.028379
288.871	0.021800
289.239	0.023452
289.607	0.029592
289.975	0.028817
290.343	0.029732
290.711	0.023410
291.079	0.022116
291.447	0.021534
291.815	0.021257
292.183	0.021678
292.551	0.024001
292.919	0.024914
293.287	0.025573
293.655	0.024295
294.022	0.032066
294.390	0.038975
294.758	0.046103
295.126	0.040127
295.493	0.047928
295.861	0.055441
296.229	0.063540
296.596	0.066815
296.964	0.069802
297.331	0.071129
297.699	0.073442
298.066	0.074486
298.434	0.081052
298.801	0.084801
299.168	0.086186
299.536	0.089841
299.903	0.090411
300.270	0.090781
300.638	0.097617
301.005	0.101330
301.372	0.107029
301.739	0.110915
302.106	0.115097
302.473	0.122551
302.840	0.131939
303.207	0.147386
303.574	0.158061
303.941	0.167341
304.308	0.183445
304.675	0.194082
305.042	0.213107
305.409	0.230923
305.776	0.248939
306.143	0.267883
306.509	0.287958
306.876	0.315063
307.243	0.342415
307.610	0.373982
307.976	0.401067
308.343	0.425187
308.709	0.456376
309.076	0.490953
309.442	0.517237
309.809	0.541435
310.175	0.569478
310.542	0.601824
310.908	0.629220
311.275	0.655701
311.641	0.684701
312.007	0.713261
312.373	0.746501
312.740	0.773553
313.106	0.799786
313.472	0.834624
313.838	0.864453
314.204	0.892535
314.570	0.915187
314.936	0.936130
315.302	0.961187
315.668	0.981037
316.034	1.012828
316.400	1.040185
316.766	1.059046
317.132	1.094701
317.498	1.120364
317.864	1.135283
318.230	1.151830
318.595	1.172273
318.961	1.193322
319.327	1.218041
319.692	1.234009
320.058	1.240086
320.424	1.253311
320.789	1.269245
321.155	1.281777
321.520	1.299499
321.886	1.316587
322.251	1.330597
322.616	1.345661
322.982	1.357286
323.347	1.371266
323.712	1.382473
324.078	1.390344
324.443	1.403259
324.808	1.408671
325.173	1.422048
325.539	1.437346
325.904	1.445520
326.269	1.451840
326.634	1.457920
326.999	1.463489
327.364	1.469804
327.729	1.482749
328.094	1.491880
328.459	1.503449
328.823	1.508256
329.188	1.514749
329.553	1.518388
329.918	1.523882
330.283	1.529142
330.647	1.535759
331.012	1.543698
331.377	1.546298
331.741	1.548327
332.106	1.551099
332.470	1.551792
332.835	1.554935
333.199	1.557281
333.564	1.562216
333.928	1.564827
334.293	1.568118
334.657	1.568913
335.021	1.572811
335.386	1.573102
335.750	1.573164
336.114	1.571280
336.478	1.573824
336.843	1.571739
337.207	1.571913
337.571	1.574866
337.935	1.576926
338.299	1.576043
338.663	1.572805
339.027	1.572114
339.391	1.573682
339.755	1.574292
340.119	1.576487
340.483	1.573511
340.846	1.573996
341.210	1.574885
341.574	1.575418
341.938	1.576144
342.301	1.578713
342.665	1.580515
343.029	1.581285
343.392	1.583270
343.756	1.585152
344.119	1.586834
344.483	1.588590
344.846	1.589817
345.210	1.591019
345.573	1.590579
345.937	1.591650
346.300	1.596269
346.663	1.599098
347.027	1.600793
347.390	1.600709
347.753	1.601170
348.116	1.603686
348.479	1.605394
348.843	1.607091
349.206	1.608369
349.569	1.609678
349.932	1.610115
350.295	1.610419
350.658	1.611642
351.021	1.613088
351.383	1.615493
351.746	1.615777
352.109	1.617637
352.472	1.619130
352.835	1.620442
353.197	1.623208
353.560	1.626237
353.923	1.625462
354.285	1.626485
354.648	1.626656
355.011	1.627725
355.373	1.630351
355.736	1.631015
356.098	1.631494
356.461	1.632989
356.823	1.633147
357.185	1.635725
357.548	1.636804
357.910	1.637191
358.272	1.638663
358.635	1.636409
358.997	1.635552
359.359	1.638366
359.721	1.639080
360.083	1.640724
360.445	1.640858
360.807	1.640496
361.169	1.639512
361.531	1.641481
361.893	1.641527
362.255	1.644170
362.617	1.647137
362.979	1.647764
363.341	1.647876
363.703	1.648574
364.064	1.649454
364.426	1.651727
364.788	1.651874
365.149	1.653785
365.511	1.655576
365.873	1.656931
366.234	1.660867
366.596	1.662930
366.957	1.663944
367.319	1.664606
367.680	1.665050
368.042	1.666235
368.403	1.667992
368.764	1.670337
369.126	1.671407
369.487	1.673372
369.848	1.674125
370.209	1.675442
370.570	1.675887
370.931	1.678790
371.293	1.679704
371.654	1.679927
372.015	1.681762
372.376	1.683586
372.737	1.685213
373.098	1.686971
373.458	1.689298
373.819	1.690508
374.180	1.692579
374.541	1.692982
374.902	1.694617
375.263	1.696020
375.623	1.696377
375.984	1.699274
376.345	1.699251
376.705	1.701255
377.066	1.703080
377.426	1.703072
377.787	1.703104
378.147	1.704641
378.508	1.704033
378.868	1.706354
379.228	1.707731
379.589	1.707252
379.949	1.707336
380.309	1.707966
380.670	1.707621
381.030	1.707274
381.390	1.708306
381.750	1.707872
382.110	1.708054
382.470	1.709800
382.830	1.710857
383.190	1.713517
383.550	1.713651
383.910	1.715424
384.270	1.716309
384.630	1.717428
384.990	1.718993
385.350	1.720261
385.709	1.720653
386.069	1.723810
386.429	1.723646
386.788	1.724521
387.148	1.724898
387.508	1.726691
387.867	1.727082
388.227	1.728400
388.586	1.728734
388.946	1.729677
389.305	1.730505
389.665	1.732225
390.024	1.732597
390.383	1.733552
390.743	1.733079
391.102	1.732044
391.461	1.731605
391.820	1.731936
392.179	1.731131
392.539	1.731335
392.898	1.732387
393.257	1.733126
393.616	1.732957
393.975	1.733414
394.334	1.734446
394.693	1.735832
395.051	1.735638
395.410	1.735730
395.769	1.736450
396.128	1.738283
396.487	1.738045
396.845	1.737353
397.204	1.737041
397.563	1.735212
397.921	1.734385
398.280	1.733617
398.638	1.732225
398.997	1.731993
399.355	1.730812
399.714	1.730121
400.072	1.728945
400.431	1.726828
400.789	1.725690
401.147	1.725015
401.506	1.723902
401.864	1.722629
402.222	1.720341
402.580	1.717461
402.938	1.716824
403.297	1.714595
403.655	1.711220
404.013	1.710173
404.371	1.709497
404.729	1.707639
405.087	1.706976
405.444	1.705971
405.802	1.704528
406.160	1.704460
406.518	1.703485
406.876	1.701830
407.233	1.701470
407.591	1.700328
407.949	1.699608
408.306	1.698516
408.664	1.696885
409.022	1.696385
409.379	1.694078
409.737	1.693254
410.094	1.692089
410.451	1.690553
410.809	1.689104
411.166	1.687537
411.523	1.685855
411.881	1.684197
412.238	1.682363
412.595	1.680041
412.952	1.678086
413.310	1.676567
413.667	1.675497
414.024	1.674598
414.381	1.672879
414.738	1.669455
415.095	1.666964
415.452	1.664277
415.809	1.661909
416.165	1.659746
416.522	1.657163
416.879	1.654205
417.236	1.652083
417.593	1.650031
417.949	1.647132
418.306	1.644681
418.663	1.643398
419.019	1.640882
419.376	1.638375
419.732	1.635743
420.089	1.634019
420.445	1.631728
420.802	1.630055
421.158	1.626553
421.514	1.623082
421.871	1.620978
422.227	1.618861
422.583	1.616621
422.939	1.613810
423.295	1.610973
423.652	1.607865
424.008	1.604711
424.364	1.602804
424.720	1.600316
425.076	1.597678
425.432	1.594274
425.788	1.591379
426.143	1.587845
426.499	1.584193
426.855	1.581100
427.211	1.577836
427.567	1.574113
427.922	1.570383
428.278	1.565648
428.634	1.562615
428.989	1.559344
429.345	1.555614
429.700	1.552665
430.056	1.550166
430.411	1.547494
430.767	1.544299
431.122	1.541043
431.478	1.537727
431.833	1.534143
432.188	1.530043
432.543	1.526611
432.899	1.522813
433.254	1.518747
433.609	1.514527
433.964	1.510833
434.319	1.506247
434.674	1.501731
435.029	1.498295
435.384	1.494296
435.739	1.490305
436.094	1.486784
436.449	1.483176
436.804	1.479668
437.158	1.475416
437.513	1.470419
437.868	1.465427
438.223	1.461427
438.577	1.456717
438.932	1.452464
439.287	1.448276
439.641	1.443735
439.996	1.439083
440.350	1.434712
440.704	1.430618
441.059	1.426302
441.413	1.421668
441.768	1.417111
442.122	1.413212
442.476	1.408351
442.830	1.404277
443.185	1.400054
443.539	1.395387
443.893	1.390382
444.247	1.385494
444.601	1.381104
444.955	1.376478
445.309	1.371948
445.663	1.366624
446.017	1.361960
446.371	1.356891
446.724	1.351643
447.078	1.346856
447.432	1.341714
447.786	1.336807
448.139	1.331294
448.493	1.326311
448.847	1.321047
449.200	1.316435
449.554	1.311541
449.907	1.306781
450.261	1.301420
450.614	1.296690
450.968	1.291911
451.321	1.287309
451.674	1.282245
452.027	1.276898
452.381	1.271919
452.734	1.267105
453.087	1.262368
453.440	1.257246
453.793	1.252556
454.146	1.247803
454.499	1.242948
454.852	1.238134
455.205	1.233352
455.558	1.228692
455.911	1.224026
456.264	1.219622
456.617	1.214782
456.970	1.209894
457.322	1.205300
457.675	1.201288
458.028	1.197053
458.380	1.192843
458.733	1.188566
459.086	1.184636
459.438	1.180416
459.791	1.176048
460.143	1.171673
460.496	1.167387
460.848	1.163093
461.200	1.158594
461.553	1.154262
461.905	1.150512
462.257	1.146531
462.609	1.142386
462.961	1.138559
463.314	1.134695
463.666	1.130726
464.018	1.126787
464.370	1.123184
464.722	1.119448
465.074	1.115531
465.426	1.111848
465.777	1.108137
466.129	1.104544
466.481	1.100997
466.833	1.097831
467.184	1.094853
467.536	1.091412
467.888	1.088077
468.239	1.084584
468.591	1.080693
468.943	1.076534
469.294	1.071952
469.646	1.067679
469.997	1.063614
470.348	1.059460
470.700	1.055453
471.051	1.051642
471.402	1.048024
471.754	1.044533
472.105	1.041163
472.456	1.037888
472.807	1.034692
473.158	1.031652
473.509	1.028887
473.860	1.025804
474.211	1.022763
474.562	1.019818
474.913	1.016874
475.264	1.013882
475.615	1.011015
475.966	1.008235
476.316	1.005258
476.667	1.002482
477.018	0.999825
477.368	0.996959
477.719	0.994186
478.070	0.991334
478.420	0.988621
478.771	0.985886
479.121	0.983017
479.472	0.980299
479.822	0.977538
480.172	0.974889
480.523	0.972100
480.873	0.969026
481.223	0.965562
481.573	0.962003
481.924	0.958236
482.274	0.954813
482.624	0.951714
482.974	0.948917
483.324	0.946612
483.674	0.944726
484.024	0.942867
484.374	0.941114
484.724	0.939328
485.073	0.937641
485.423	0.935967
485.773	0.934172
486.123	0.932385
486.472	0.930630
486.822	0.928836
487.172	0.927097
487.521	0.925220
487.871	0.923363
488.220	0.921497
488.570	0.919521
488.919	0.917159
489.268	0.914480
489.618	0.911484
489.967	0.908022
490.316	0.904139
490.666	0.899988
491.015	0.896046
491.364	0.892328
491.713	0.888903
492.062	0.885817
492.411	0.882779
492.760	0.879813
493.109	0.876939
493.458	0.874166
493.807	0.871468
494.156	0.868680
494.505	0.865860
494.853	0.863064
495.202	0.860246
495.551	0.857219
495.900	0.854421
496.248	0.851527
496.597	0.848671
496.945	0.845927
497.294	0.843157
497.642	0.840525
497.991	0.837706
498.339	0.834859
498.688	0.832282
499.036	0.829583
499.384	0.827030
499.732	0.824402
500.081	0.821752
500.429	0.819218
500.777	0.816660
501.125	0.814099
501.473	0.811581
501.821	0.809076
502.169	0.806690
502.517	0.804329
502.865	0.802055
503.213	0.799612
503.561	0.797305
503.908	0.795099
504.256	0.792726
504.604	0.790391
504.952	0.787974
505.299	0.785761
505.647	0.783499
505.994	0.781056
506.342	0.778740
506.689	0.776232
507.037	0.773904
507.384	0.771631
507.732	0.769331
508.079	0.767125
508.426	0.764827
508.774	0.762508
509.121	0.760229
509.468	0.758093
509.815	0.755938
510.162	0.753804
510.509	0.751714
510.856	0.749591
511.203	0.747537
511.550	0.745465
511.897	0.743342
512.244	0.741404
512.591	0.739272
512.938	0.737204
513.284	0.735161
513.631	0.733064
513.978	0.731148
514.324	0.729219
514.671	0.727215
515.018	0.725136
515.364	0.722994
515.711	0.720974
516.057	0.718994
516.403	0.716995
516.750	0.714906
517.096	0.712897
517.443	0.710972
517.789	0.709043
518.135	0.707134
518.481	0.705143
518.827	0.703254
519.173	0.701360
519.519	0.699298
519.865	0.697327
520.211	0.695331
520.557	0.693402
520.903	0.691315
521.249	0.689311
521.595	0.687236
521.941	0.685125
522.287	0.683074
522.632	0.680891
522.978	0.678804
523.324	0.676716
523.669	0.674685
524.015	0.672607
524.360	0.670533
524.706	0.668405
525.051	0.666264
525.397	0.664146
525.742	0.662015
526.087	0.659997
526.433	0.658024
526.778	0.656101
527.123	0.654163
527.468	0.652217
527.813	0.650291
528.158	0.648422
528.504	0.646353
528.849	0.644167
529.193	0.642104
529.538	0.639880
529.883	0.637613
530.228	0.635335
530.573	0.633114
530.918	0.630815
531.263	0.628630
531.607	0.626383
531.952	0.624204
532.296	0.622087
532.641	0.619970
532.986	0.617753
533.330	0.615487
533.675	0.613302
534.019	0.610950
534.363	0.608643
534.708	0.606324
535.052	0.603913
535.396	0.601590
535.741	0.599363
536.085	0.597058
536.429	0.594672
536.773	0.592362
537.117	0.589998
537.461	0.587499
537.805	0.584905
538.149	0.582274
538.493	0.579528
538.837	0.576865
539.181	0.574050
539.524	0.571281
539.868	0.568442
540.212	0.565702
540.556	0.562854
540.899	0.560037
541.243	0.557367
541.586	0.554627
541.930	0.551851
542.273	0.549108
542.617	0.546242
542.960	0.543271
543.304	0.540245
543.647	0.537093
543.990	0.533991
544.333	0.530879
544.677	0.527768
545.020	0.524737
545.363	0.521728
545.706	0.518683
546.049	0.515661
546.392	0.512684
546.735	0.509656
547.078	0.506607
547.421	0.503486
547.764	0.500305
548.106	0.496990
548.449	0.493521
548.792	0.490077
549.135	0.486677
549.477	0.483287
549.820	0.479954
550.162	0.476635
550.505	0.473348
550.847	0.470080
551.190	0.466509
551.532	0.462921
551.875	0.459195
552.217	0.455327
552.559	0.451619
552.901	0.447913
553.244	0.444281
553.586	0.440724
553.928	0.437232
554.270	0.433839
554.612	0.430523
554.954	0.427211
555.296	0.423800
555.638	0.420430
555.980	0.416801
556.322	0.412979
556.663	0.409035
557.005	0.405041
557.347	0.401087
557.689	0.397154
558.030	0.393308
558.372	0.389566
558.713	0.385819
559.055	0.382102
559.396	0.378410
559.738	0.374576
560.079	0.370801
560.421	0.366986
560.762	0.363301
561.103	0.359627
561.444	0.356043
561.786	0.352487
562.127	0.348975
562.468	0.345461
562.809	0.341829
563.150	0.338115
563.491	0.334402
563.832	0.330516
564.173	0.326541
564.514	0.322455
564.855	0.318304
565.195	0.314007
565.536	0.309762
565.877	0.305569
566.218	0.301462
566.558	0.297416
566.899	0.293596
567.239	0.289975
567.580	0.286645
567.920	0.283486
568.261	0.280657
568.601	0.277952
568.941	0.275380
569.282	0.272936
569.622	0.270514
569.962	0.268075
570.302	0.265703
570.643	0.263384
570.983	0.261208
571.323	0.259136
571.663	0.257138
572.003	0.255126
572.343	0.253144
572.683	0.251055
573.022	0.248874
573.362	0.246595
573.702	0.244332
574.042	0.242065
574.381	0.239865
574.721	0.237710
575.061	0.235674
575.400	0.233728
575.740	0.231833
576.079	0.229938
576.419	0.227973
576.758	0.225934
577.097	0.223816
577.437	0.221598
577.776	0.219332
578.115	0.217074
578.454	0.214915
578.794	0.212976
579.133	0.211272
579.472	0.209732
579.811	0.208319
580.150	0.206916
580.489	0.205489
580.828	0.203942
581.167	0.202346
581.505	0.200724
581.844	0.199095
582.183	0.197453
582.522	0.195851
582.860	0.194310
583.199	0.192848
583.538	0.191466
583.876	0.190122
584.215	0.188809
584.553	0.187500
584.891	0.186212
585.230	0.184912
585.568	0.183552
585.906	0.182092
586.245	0.180627
586.583	0.179185
586.921	0.177851
587.259	0.176660
587.597	0.175542
587.935	0.174378
588.273	0.173132
588.611	0.171731
588.949	0.170254
589.287	0.168721
589.625	0.167159
589.963	0.165664
590.300	0.164235
590.638	0.162886
590.976	0.161553
591.313	0.160221
591.651	0.158884
591.989	0.157559
592.326	0.156316
592.664	0.155193
593.001	0.154119
593.338	0.153137
593.676	0.152227
594.013	0.151329
594.350	0.150414
594.687	0.149541
595.025	0.148753
595.362	0.147941
595.699	0.147099
596.036	0.146241
596.373	0.145399
596.710	0.144530
597.047	0.143614
597.384	0.142707
597.720	0.141772
598.057	0.140889
598.394	0.139975
598.731	0.139078
599.067	0.138194
599.404	0.137284
599.741	0.136388
600.077	0.135556
600.414	0.134770
600.750	0.134035
601.087	0.133369
601.423	0.132713
601.759	0.132058
602.096	0.131353
602.432	0.130695
602.768	0.130019
603.104	0.129340
603.440	0.128636
603.776	0.127984
604.112	0.127378
604.448	0.126774
604.784	0.126205
605.120	0.125601
605.456	0.125062
605.792	0.124526
606.128	0.123995
606.463	0.123457
606.799	0.122877
607.135	0.122307
607.470	0.121759
607.806	0.121213
608.142	0.120629
608.477	0.120093
608.812	0.119526
609.148	0.119004
609.483	0.118458
609.819	0.117963
610.154	0.117426
610.489	0.116893
610.824	0.116347
611.159	0.115793
611.494	0.115230
611.830	0.114721
612.165	0.114298
612.500	0.113873
612.834	0.113483
613.169	0.113084
613.504	0.112672
613.839	0.112263
614.174	0.111833
614.509	0.111364
614.843	0.110909
615.178	0.110467
615.512	0.110073
615.847	0.109701
616.182	0.109392
616.516	0.109086
616.850	0.108738
617.185	0.108411
617.519	0.108096
617.853	0.107766
618.188	0.107341
618.522	0.106902
618.856	0.106450
619.190	0.105958
619.524	0.105456
619.858	0.104997
620.192	0.104541
620.526	0.104114
620.860	0.103788
621.194	0.103449
621.528	0.103111
621.862	0.102780
622.195	0.102501
622.529	0.102123
622.863	0.101749
623.196	0.101339
623.530	0.101002
623.864	0.100670
624.197	0.100341
624.530	0.099972
624.864	0.099640
625.197	0.099391
625.531	0.099160
625.864	0.098899
626.197	0.098615
626.530	0.098382
626.863	0.098054
627.196	0.097739
627.529	0.097443
627.862	0.097070
628.195	0.096696
628.528	0.096318
628.861	0.095895
629.194	0.095553
629.527	0.095212
629.860	0.094898
630.192	0.094546
630.525	0.094107
630.858	0.093718
631.190	0.093381
631.523	0.093043
631.855	0.092594
632.188	0.092105
632.520	0.091662
632.852	0.091195
633.185	0.090824
633.517	0.090445
633.849	0.090142
634.182	0.089832
634.514	0.089584
634.846	0.089359
635.178	0.089161
635.510	0.088926
635.842	0.088712
636.174	0.088442
636.506	0.088213
636.837	0.087966
637.169	0.087761
637.501	0.087529
637.833	0.087380
638.164	0.087175
638.496	0.086924
638.828	0.086673
639.159	0.086459
639.491	0.086216
639.822	0.085916
640.154	0.085495
640.485	0.085022
640.816	0.084522
641.147	0.084120
641.479	0.083605
641.810	0.083137
642.141	0.082706
642.472	0.082248
642.803	0.081879
643.134	0.081459
643.465	0.081055
643.796	0.080687
644.127	0.080290
644.458	0.080049
644.789	0.079734
645.119	0.079526
645.450	0.079438
645.781	0.079511
646.111	0.079652
646.442	0.079793
646.773	0.079894
647.103	0.079994
647.433	0.080061
647.764	0.080019
648.094	0.080023
648.425	0.080002
648.755	0.080043
649.085	0.079976
649.415	0.079975
649.745	0.080019
650.075	0.080035
650.405	0.080010
650.735	0.078767
651.065	0.070852
651.395	0.063431
651.725	0.051145
652.055	0.034610
652.385	0.025038
652.715	0.018783
653.044	0.014376
653.374	0.011123
653.704	0.008639
654.033	0.011053
654.363	0.015381
654.692	0.017858
655.022	0.019333
655.351	0.020241
655.680	0.020775
656.010	0.021071
656.339	0.021202
656.668	0.021236
656.997	0.021213
657.326	0.021159
657.655	0.021113
657.984	0.020942
658.313	0.019304
658.642	0.018285
658.971	0.021519
659.300	0.025627
659.629	0.031030
659.958	0.038431
660.286	0.049210
660.615	0.066352
660.944	0.078940
661.272	0.077532
661.601	0.076738
661.929	0.076071
662.258	0.075588
662.586	0.075152
662.915	0.074687
663.243	0.074183
663.571	0.073619
663.899	0.073241
664.228	0.072869
664.556	0.072623
664.884	0.072442
665.212	0.072269
665.540	0.072192
665.868	0.072074
666.196	0.071991
666.524	0.071810
666.852	0.071759
667.179	0.071606
667.507	0.071512
667.835	0.071410
668.162	0.071351
668.490	0.071224
668.818	0.071181
669.145	0.071173
669.473	0.071236
669.800	0.071277
670.127	0.071429
670.455	0.071532
670.782	0.071642
671.109	0.071677
671.436	0.071702
671.764	0.071773
672.091	0.071791
672.418	0.071861
672.745	0.071890
673.072	0.071895
673.399	0.071856
673.726	0.071812
674.053	0.071770
674.379	0.071710
674.706	0.071633
675.033	0.071498
675.359	0.071433
675.686	0.071331
676.013	0.071215
676.339	0.071093
676.666	0.070875
676.992	0.070718
677.318	0.070655
677.645	0.070520
677.971	0.070478
678.297	0.070445
678.624	0.070374
678.950	0.070255
679.276	0.070151
679.602	0.069964
679.928	0.069837
680.254	0.069673
680.580	0.069485
680.906	0.069355
681.232	0.069316
681.558	0.069333
681.883	0.069354
682.209	0.069407
682.535	0.069467
682.860	0.069481
683.186	0.069547
683.511	0.069526
683.837	0.069387
684.162	0.069269
684.488	0.069168
684.813	0.069086
685.138	0.068929
685.464	0.068793
685.789	0.068675
686.114	0.068517
686.439	0.068471
686.764	0.068408
687.089	0.068378
687.414	0.068320
687.739	0.068315
688.064	0.068239
688.389	0.068167
688.714	0.068057
689.039	0.067805
689.363	0.067656
689.688	0.067524
690.013	0.067264
690.337	0.067168
690.662	0.067072
690.986	0.066954
691.311	0.066892
691.635	0.066805
691.959	0.066724
692.284	0.066531
692.608	0.066370
692.932	0.066217
693.256	0.066159
693.580	0.066077
693.904	0.065965
694.228	0.065965
694.552	0.065977
694.876	0.065939
695.200	0.065881
695.524	0.065778
695.848	0.065688
696.172	0.065434
696.495	0.065171
696.819	0.065004
697.143	0.064663
697.466	0.064426
697.790	0.064170
698.113	0.063855
698.437	0.063505
698.760	0.063259
699.083	0.063192
699.407	0.063100
699.730	0.063049
700.053	0.062911
700.376	0.062747
700.699	0.062543
701.022	0.062190
701.345	0.061742
701.668	0.061206
701.991	0.060609
702.314	0.059890
702.637	0.059285
702.960	0.058693
703.283	0.058172
703.605	0.057612
703.928	0.057412
704.251	0.057220
704.573	0.057150
704.896	0.057073
705.218	0.056948
705.540	0.056797
705.863	0.056478
706.185	0.056117
706.507	0.055668
706.830	0.055162
707.152	0.054651
707.474	0.054172
707.796	0.053735
708.118	0.053324
708.440	0.053064
708.762	0.052819
709.084	0.052693
709.406	0.052524
709.728	0.052408
710.049	0.052202
710.371	0.052031
710.693	0.051727
711.014	0.051344
711.336	0.050951
711.658	0.050628
711.979	0.050386
712.301	0.050148
712.622	0.049962
712.943	0.049793
713.265	0.049649
713.586	0.049510
713.907	0.049439
714.228	0.049459
714.549	0.049421
714.870	0.049445
715.191	0.049423
715.512	0.049457
715.833	0.049371
716.154	0.049288
716.475	0.049114
716.796	0.048967
717.117	0.048759
717.437	0.048454
717.758	0.048217
718.078	0.047904
718.399	0.047562
718.719	0.047207
719.040	0.046847
719.360	0.046552
719.681	0.046247
720.001	0.046036
720.321	0.045898
720.642	0.045656
720.962	0.045403
721.282	0.045220
721.602	0.044986
721.922	0.044783
722.242	0.044498
722.562	0.044337
722.882	0.044108
723.202	0.044013
723.521	0.043958
723.841	0.043849
724.161	0.043824
724.481	0.043751
724.800	0.043673
725.120	0.043516
725.439	0.043381
725.759	0.043297
726.078	0.043252
726.398	0.043199
726.717	0.043152
727.036	0.043092
727.355	0.043177
727.675	0.043266
727.994	0.043376
728.313	0.043474
728.632	0.043591
728.951	0.043659
729.270	0.043600
729.589	0.043562
729.908	0.043402
730.226	0.043210
730.545	0.043028
730.864	0.042770
731.182	0.042590
731.501	0.042413
731.820	0.042326
732.138	0.042283
732.457	0.042133
732.775	0.041996
733.093	0.041894
733.412	0.041794
733.730	0.041679
734.048	0.041499
734.367	0.041227
734.685	0.040957
735.003	0.040619
735.321	0.040248
735.639	0.039914
735.957	0.039684
736.275	0.039448
736.593	0.039329
736.910	0.039181
737.228	0.039155
737.546	0.039084
737.863	0.038945
738.181	0.038758
738.499	0.038528
738.816	0.038306
739.134	0.038146
739.451	0.037955
739.768	0.037784
740.086	0.037555
740.403	0.037295
740.720	0.037012
741.038	0.036818
741.355	0.036561
741.672	0.036271
741.989	0.035972
742.306	0.035643
742.623	0.035263
742.940	0.034878
743.257	0.034325
743.573	0.033891
743.890	0.033347
744.207	0.032843
744.523	0.032472
744.840	0.032132
745.157	0.031867
745.473	0.031436
745.790	0.031125
746.106	0.030821
746.422	0.030532
746.739	0.030232
747.055	0.030043
747.371	0.029894
747.687	0.029828
748.004	0.029806
748.320	0.029857
748.636	0.029873
748.952	0.029926
749.268	0.030025
749.584	0.030075
749.899	0.030149
750.215	0.030106
750.531	0.030078
750.847	0.030156
751.162	0.030178
751.478	0.030236
751.793	0.030158
752.109	0.030157
752.424	0.030106
752.740	0.030020
753.055	0.030020
753.370	0.030068
753.686	0.030148
754.001	0.030376
754.316	0.030610
754.631	0.030816
754.946	0.030948
755.261	0.031110
755.576	0.031204
755.891	0.031219
756.206	0.031195
756.521	0.031172
756.836	0.031178
757.150	0.031213
757.465	0.031239
757.780	0.031227
758.094	0.031286
758.409	0.031391
758.723	0.031495
759.038	0.031500
759.352	0.031555
759.667	0.031495
759.981	0.031441
760.295	0.031334
760.609	0.031117
760.923	0.030862
761.238	0.030585
761.552	0.030393
761.866	0.030214
762.180	0.030131
762.493	0.030109
762.807	0.030093
763.121	0.030060
763.435	0.029998
763.749	0.029826
764.062	0.029665
764.376	0.029516
764.689	0.029273
765.003	0.029014
765.316	0.028817
765.630	0.028816
765.943	0.028738
766.257	0.028699
766.570	0.028626
766.883	0.028533
767.196	0.028364
767.509	0.028111
767.822	0.027919
768.135	0.027682
768.448	0.027421
768.761	0.027141
769.074	0.026820
769.387	0.026545
769.700	0.026307
770.013	0.026086
770.325	0.025923
770.638	0.025789
770.950	0.025633
771.263	0.025503
771.575	0.025390
771.888	0.025131
772.200	0.024794
772.513	0.024463
772.825	0.024129
773.137	0.023776
773.449	0.023477
773.761	0.023199
774.074	0.022990
774.386	0.022770
774.698	0.022540
775.010	0.022243
775.321	0.021889
775.633	0.021639
775.945	0.021512
776.257	0.021417
776.568	0.021386
776.880	0.021383
777.192	0.021343
777.503	0.021372
777.815	0.021407
778.126	0.021446
778.438	0.021712
778.749	0.022036
779.060	0.022217
779.372	0.022379
779.683	0.022572
779.994	0.022686
780.305	0.022795
780.616	0.022988
780.927	0.023092
781.238	0.023157
781.549	0.023299
781.860	0.023461
782.171	0.023589
782.481	0.023700
782.792	0.023691
783.103	0.023716
783.413	0.023763
783.724	0.023720
784.034	0.023656
784.345	0.023484
784.655	0.023392
784.966	0.023157
785.276	0.023004
785.586	0.022913
785.896	0.022884
786.207	0.022853
786.517	0.022843
786.827	0.022899
787.137	0.022841
787.447	0.022824
787.757	0.022886
788.066	0.022901
788.376	0.022943
788.686	0.022997
788.996	0.022917
789.305	0.022929
789.615	0.022870
789.925	0.022814
790.234	0.022901
790.544	0.023062
790.853	0.023282
791.162	0.023402
791.472	0.023656
791.781	0.023810
792.090	0.024011
792.399	0.024085
792.708	0.023964
793.017	0.023916
793.326	0.023812
793.635	0.023757
793.944	0.023597
794.253	0.023411
794.562	0.023229
794.871	0.023117
795.179	0.022951
795.488	0.022927
795.797	0.022963
796.105	0.023011
796.414	0.023031
796.722	0.023017
797.031	0.022872
797.339	0.022741
797.647	0.022567
797.956	0.022231
798.264	0.021817
798.572	0.021477
798.880	0.021140
799.188	0.020939
799.496	0.020789
799.804	0.020707
800.112	0.020608
800.420	0.020586
800.728	0.020650
801.035	0.020612
801.343	0.020277
801.651	0.019994
801.958	0.019760
802.266	0.019562
802.573	0.019530
802.881	0.019697
803.188	0.019606
803.496	0.019720
803.803	0.019884
804.110	0.020172
804.417	0.020278
804.724	0.020295
805.032	0.020218
805.339	0.020208
805.646	0.020211
805.953	0.020001
806.259	0.019945
806.566	0.019733
806.873	0.019769
807.180	0.019678
807.486	0.019710
807.793	0.019883
808.100	0.020036
808.406	0.020043
808.713	0.020054
809.019	0.019783
809.326	0.019424
809.632	0.019251
809.938	0.018838
810.244	0.018429
810.551	0.017795
810.857	0.017390
811.163	0.017258
811.469	0.017135
811.775	0.016993
812.081	0.017008
812.387	0.017120
812.692	0.016995
812.998	0.017189
813.304	0.017163
813.610	0.017304
813.915	0.017421
814.221	0.017365
814.526	0.017370
814.832	0.017510
815.137	0.017578
815.443	0.017731
815.748	0.017757
816.053	0.017703
816.358	0.017693
816.664	0.017694
816.969	0.017844
817.274	0.017947
817.579	0.017778
817.884	0.017638
818.189	0.017683
818.493	0.017620
818.798	0.017619
819.103	0.017605
819.408	0.017365
819.712	0.017204
820.017	0.016952
820.321	0.016752
820.626	0.016645
820.930	0.016346
821.235	0.016113
821.539	0.015762
821.843	0.015572
822.148	0.015442
822.452	0.015543
822.756	0.015778
823.060	0.015807
823.364	0.016051
823.668	0.016158
823.972	0.016315
824.276	0.016319
824.580	0.016398
824.883	0.016664
825.187	0.016848
825.491	0.017045
825.795	0.017149
826.098	0.017211
826.402	0.017078
826.705	0.017178
827.008	0.017105
827.312	0.017190
827.615	0.017087
827.918	0.016993
828.222	0.016779
828.525	0.016641
828.828	0.016565
829.131	0.016391
829.434	0.016243
829.737	0.015736
830.040	0.015082
830.343	0.014657
830.645	0.014624
830.948	0.014221
831.251	0.013790
831.553	0.013381
831.856	0.012950
832.159	0.013024
832.461	0.012963
832.764	0.013136
833.066	0.012668
833.368	0.012682
833.671	0.012620
833.973	0.012428
834.275	0.012513
834.577	0.012587
834.879	0.012408
835.181	0.011974
835.483	0.011346
835.785	0.010968
836.087	0.010605
836.389	0.010851
836.690	0.010404
836.992	0.009422
837.294	0.008555
837.595	0.007649
837.897	0.006906
838.198	0.006231
838.500	0.005431
838.801	0.004544
839.103	0.003688
839.404	0.003413
839.705	0.002722
840.006	0.002442
840.307	0.002436
840.608	0.002001
840.910	0.001858
841.210	0.002370
841.511	0.002267
841.812	0.002728
842.113	0.002845
842.414	0.002450
842.715	0.001666
843.015	0.000819
843.316	0.000617
843.616	0.000395
843.917	0.000106
844.217	0.000134
844.518	-0.000112
844.818	-0.000675
845.118	-0.000571
845.419	-0.000516
845.719	-0.000770
846.019	-0.001285
846.319	-0.001411
846.619	-0.002049
846.919	-0.002021
847.219	-0.002358
847.519	-0.002786
847.819	-0.002137
848.118	-0.002979
848.418	-0.002886
848.718	-0.002940
849.017	-0.002559
849.317	-0.002019
849.616	-0.001423
849.916	-0.000731
850.215	-0.000170
850.515	0.000391
850.814	0.000597
851.113	0.001034
851.412	0.001244
851.712	0.001210
852.011	0.001055
852.310	0.001686
852.609	0.001775
852.908	0.002012
853.206	0.002074
853.505	0.002597
853.804	0.002677
854.103	0.002634
854.401	0.003015
854.700	0.002865
854.999	0.002790
855.297	0.002828
855.595	0.002965
855.894	0.002812
856.192	0.002638
856.491	0.002477
856.789	0.001998
857.087	0.001652
857.385	0.001233
857.683	0.000766
857.981	0.000640
858.279	0.000650
858.577	-0.000325
858.875	-0.000647
859.173	-0.001281
859.471	-0.001281
859.768	-0.002017
860.066	-0.002548
860.363	-0.003612
860.661	-0.004441
860.959	-0.004385
861.256	-0.004096
861.553	-0.004353
861.851	-0.005130
862.148	-0.005539
862.445	-0.005893
862.742	-0.006643
863.039	-0.007354
863.337	-0.007436
863.634	-0.008061
863.931	-0.008663
864.227	-0.009405
864.524	-0.010044
864.821	-0.009717
865.118	-0.010360
865.415	-0.010470
865.711	-0.011241
866.008	-0.012059
866.304	-0.012168
866.601	-0.011747
866.897	-0.012082
867.194	-0.012893
867.490	-0.013336
867.786	-0.013588
868.082	-0.013358
868.379	-0.013928
868.675	-0.013670
868.971	-0.013916
869.267	-0.013893
869.563	-0.013586
869.859	-0.013639
870.154	-0.013529
870.450	-0.012795
870.746	-0.012608
871.042	-0.012772
871.337	-0.012835
871.633	-0.013135
871.928	-0.013795
872.224	-0.014088
872.519	-0.014672
872.815	-0.015137
873.110	-0.014723
873.405	-0.014674
873.700	-0.014832
873.995	-0.015419
874.291	-0.015881
874.586	-0.015199
874.881	-0.015677
875.175	-0.015584
875.470	-0.015055
875.765	-0.015830
876.060	-0.015959
876.355	-0.015675
876.649	-0.015795
876.944	-0.015711
877.238	-0.015900
877.533	-0.015433
877.827	-0.014360
878.122	-0.013586
878.416	-0.013318
878.710	-0.012905
879.005	-0.013015
879.299	-0.013700
879.593	-0.014121
879.887	-0.014365
880.181	-0.014705
880.475	-0.014599
880.769	-0.014822
881.063	-0.014873
881.356	-0.014734
881.650	-0.015214
881.944	-0.014982
882.238	-0.027807
882.531	-0.024111
882.825	-0.024212
883.118	-0.032330
883.412	-0.019850
883.705	-0.018713
883.998	-0.018282
884.291	-0.013779
884.585	-0.016803
884.878	-0.016223
>>>>>>>>>> END of Data <<<<<<<<<<
>>>>>>>>>> Raw Data Start <<<<<<<<
190.664	-389
191.040	6
191.415	6
191.791	5
192.166	5
192.542	11
192.917	6
193.293	11
193.668	5
194.044	8
194.419	-9
194.794	10
195.170	10
195.545	10
195.920	10
196.296	11
196.671	12
197.046	12
197.421	13
197.796	13
198.171	14
198.546	14
198.922	14
199.297	15
199.672	15
200.047	16
200.422	16
200.796	16
201.171	16
201.546	16
201.921	16
202.296	16
202.671	16
203.045	17
203.420	17
203.795	17
204.170	17
204.544	17
204.919	17
205.294	16
205.668	17
206.043	16
206.417	16
206.792	16
207.166	16
207.541	15
207.915	15
208.289	15
208.664	15
209.038	15
209.412	15
209.787	15
210.161	15
210.535	15
210.909	15
211.284	15
211.658	15
212.032	14
212.406	15
212.780	15
213.154	14
213.528	15
213.902	14
214.276	14
214.650	14
215.024	15
215.398	15
215.772	15
216.145	15
216.519	15
216.893	15
217.267	15
217.640	16
218.014	16
218.388	16
218.761	16
219.135	16
219.508	16
219.882	16
220.256	16
220.629	16
221.003	16
221.376	16
221.749	17
222.123	17
222.496	17
222.869	17
223.243	16
223.616	17
223.989	16
224.362	17
224.736	17
225.109	17
225.482	17
225.855	17
226.228	16
226.601	17
226.974	16
227.347	16
227.720	16
228.093	16
228.466	16
228.839	16
229.212	16
229.585	15
229.957	15
230.330	16
230.703	16
231.076	17
231.448	17
231.821	16
232.194	16
232.566	16
232.939	16
233.311	16
233.684	16
234.056	16
234.429	16
234.801	16
235.174	17
235.546	17
235.918	17
236.291	17
236.663	17
237.035	17
237.408	17
237.780	17
238.152	17
238.524	17
238.896	17
239.268	17
239.641	17
240.013	17
240.385	17
240.757	17
241.129	17
241.500	17
241.872	17
242.244	17
242.616	18
242.988	17
243.360	17
243.731	18
244.103	18
244.475	17
244.847	18
245.218	18
245.590	18
245.961	18
246.333	18
246.705	18
247.076	18
247.448	18
247.819	18
248.190	18
248.562	18
248.933	19
249.305	19
249.676	19
250.047	19
250.418	19
250.790	19
251.161	19
251.532	18
251.903	18
252.274	18
252.645	18
253.016	18
253.387	19
253.758	19
254.129	19
254.500	19
254.871	20
255.242	20
255.613	20
255.984	20
256.355	19
256.725	19
257.096	19
257.467	19
257.838	19
258.208	19
258.579	19
258.949	19
259.320	19
259.690	19
260.061	19
260.431	19
260.802	19
261.172	19
261.543	18
261.913	18
262.283	18
262.654	18
263.024	18
263.394	18
263.764	18
264.135	18
264.505	18
264.875	18
265.245	18
265.615	18
265.985	18
266.355	18
266.725	18
267.095	18
267.465	18
267.835	18
268.205	18
268.575	18
268.944	19
269.314	19
269.684	19
270.054	18
270.423	18
270.793	18
271.163	18
271.532	18
271.902	18
272.271	18
272.641	18
273.010	18
273.380	19
273.749	18
274.119	19
274.488	19
274.857	18
275.227	19
275.596	19
275.965	19
276.335	19
276.704	19
277.073	19
277.442	19
277.811	20
278.180	20
278.549	20
278.918	20
279.287	21
279.656	21
280.025	21
280.394	20
280.763	21
281.132	20
281.501	20
281.869	20
282.238	20
282.607	20
282.976	19
283.344	19
283.713	19
284.081	19
284.450	18
284.819	19
285.187	19
285.556	18
285.924	18
286.292	19
286.661	18
287.029	18
287.398	19
287.766	19
288.134	19
288.502	19
288.871	20
289.239	20
289.607	20
289.975	20
290.343	20
290.711	20
291.079	20
291.447	20
291.815	21
292.183	21
292.551	20
292.919	20
293.287	21
293.655	21
294.022	20
294.390	20
294.758	20
295.126	20
295.493	20
295.861	19
296.229	19
296.596	19
296.964	18
297.331	19
297.699	19
298.066	19
298.434	19
298.801	19
299.168	19
299.536	19
299.903	19
300.270	19
300.638	19
301.005	19
301.372	19
301.739	19
302.106	20
302.473	20
302.840	20
303.207	20
303.574	20
303.941	21
304.308	20
304.675	21
305.042	20
305.409	20
305.776	20
306.143	20
306.509	21
306.876	21
307.243	21
307.610	20
307.976	20
308.343	21
308.709	20
309.076	20
309.442	20
309.809	21
310.175	21
310.542	21
310.908	21
311.275	21
311.641	21
312.007	21
312.373	21
312.740	21
313.106	21
313.472	21
313.838	21
314.204	21
314.570	21
314.936	22
315.302	22
315.668	22
316.034	22
316.400	22
316.766	22
317.132	22
317.498	22
317.864	22
318.230	23
318.595	23
318.961	23
319.327	23
319.692	23
320.058	24
320.424	24
320.789	25
321.155	25
321.520	25
321.886	26
322.251	26
322.616	27
322.982	27
323.347	28
323.712	28
324.078	29
324.443	30
324.808	31
325.173	31
325.539	31
325.904	32
326.269	33
326.634	34
326.999	34
327.364	35
327.729	35
328.094	36
328.459	36
328.823	37
329.188	37
329.553	38
329.918	39
330.283	40
330.647	40
331.012	40
331.377	41
331.741	42
332.106	43
332.470	44
332.835	45
333.199	45
333.564	46
333.928	47
334.293	48
334.657	49
335.021	49
335.386	50
335.750	51
336.114	53
336.478	54
336.843	55
337.207	56
337.571	57
337.935	58
338.299	59
338.663	60
339.027	62
339.391	63
339.755	64
340.119	64
340.483	66
340.846	67
341.210	68
341.574	69
341.938	70
342.301	70
342.665	71
343.029	72
343.392	73
343.756	73
344.119	74
344.483	75
344.846	76
345.210	76
345.573	77
345.937	78
346.300	78
346.663	79
347.027	79
347.390	80
347.753	81
348.116	81
348.479	82
348.843	82
349.206	83
349.569	83
349.932	84
350.295	85
350.658	85
351.021	86
351.383	86
351.746	86
352.109	87
352.472	87
352.835	88
353.197	88
353.560	88
353.923	88
354.285	89
354.648	89
355.011	90
355.373	90
355.736	90
356.098	91
356.461	91
356.823	91
357.185	91
357.548	92
357.910	92
358.272	92
358.635	93
358.997	94
359.359	94
359.721	94
360.083	95
360.445	95
360.807	96
361.169	96
361.531	96
361.893	97
362.255	97
362.617	97
362.979	97
363.341	97
363.703	98
364.064	98
364.426	98
364.788	99
365.149	99
365.511	99
365.873	99
366.234	98
366.596	98
366.957	98
367.319	99
367.680	99
368.042	99
368.403	99
368.764	98
369.126	98
369.487	98
369.848	98
370.209	98
370.570	98
370.931	98
371.293	98
371.654	98
372.015	97
372.376	97
372.737	97
373.098	97
373.458	96
373.819	96
374.180	96
374.541	97
374.902	97
375.263	97
375.623	97
375.984	97
376.345	97
376.705	97
377.066	97
377.426	98
377.787	98
378.147	98
378.508	99
378.868	98
379.228	98
379.589	99
379.949	99
380.309	99
380.670	100
381.030	100
381.390	100
381.750	100
382.110	101
382.470	100
382.830	100
383.190	100
383.550	100
383.910	100
384.270	100
384.630	100
384.990	100
385.350	100
385.709	101
386.069	100
386.429	101
386.788	101
387.148	101
387.508	101
387.867	101
388.227	101
388.586	101
388.946	102
389.305	102
389.665	102
390.024	103
390.383	103
390.743	104
391.102	105
391.461	105
391.820	105
392.179	106
392.539	106
392.898	106
393.257	106
393.616	106
393.975	107
394.334	107
394.693	108
395.051	109
395.410	109
395.769	110
396.128	110
396.487	110
396.845	110
397.204	111
397.563	111
397.921	111
398.280	111
398.638	112
398.997	112
399.355	112
399.714	113
400.072	113
400.431	114
400.789	114
401.147	115
401.506	115
401.864	115
402.222	116
402.580	117
402.938	116
403.297	117
403.655	117
404.013	117
404.371	117
404.729	118
405.087	118
405.444	118
405.802	119
406.160	119
406.518	119
406.876	119
407.233	120
407.591	120
407.949	120
408.306	120
408.664	121
409.022	121
409.379	121
409.737	121
410.094	122
410.451	122
410.809	123
411.166	124
411.523	124
411.881	125
412.238	126
412.595	126
412.952	127
413.310	127
413.667	128
414.024	128
414.381	128
414.738	130
415.095	130
415.452	131
415.809	132
416.165	133
416.522	134
416.879	135
417.236	136
417.593	137
417.949	139
418.306	141
418.663	142
419.019	144
419.376	146
419.732	148
420.089	150
420.445	152
420.802	153
421.158	155
421.514	157
421.871	159
422.227	160
422.583	161
422.939	163
423.295	164
423.652	165
424.008	167
424.364	168
424.720	169
425.076	169
425.432	171
425.788	171
426.143	173
426.499	174
426.855	176
427.211	177
427.567	179
427.922	181
428.278	183
428.634	184
428.989	185
429.345	186
429.700	188
430.056	189
430.411	191
430.767	193
431.122	195
431.478	197
431.833	198
432.188	200
432.543	202
432.899	203
433.254	205
433.609	206
433.964	207
434.319	208
434.674	210
435.029	211
435.384	212
435.739	214
436.094	216
436.449	219
436.804	221
437.158	225
437.513	228
437.868	232
438.223	236
438.577	240
438.932	245
439.287	249
439.641	254
439.996	259
440.350	264
440.704	268
441.059	273
441.413	278
441.768	283
442.122	287
442.476	292
442.830	297
443.185	302
443.539	306
443.893	311
444.247	316
444.601	320
444.955	323
445.309	326
445.663	329
446.017	331
446.371	334
446.724	337
447.078	339
447.432	341
447.786	343
448.139	345
448.493	347
448.847	348
449.200	350
449.554	351
449.907	352
450.261	354
450.614	355
450.968	356
451.321	358
451.674	360
452.027	361
452.381	363
452.734	365
453.087	367
453.440	370
453.793	372
454.146	376
454.499	380
454.852	384
455.205	389
455.558	394
455.911	399
456.264	404
456.617	410
456.970	415
457.322	420
457.675	424
458.028	429
458.380	433
458.733	436
459.086	440
459.438	445
459.791	449
460.143	455
460.496	461
460.848	468
461.200	476
461.553	483
461.905	490
462.257	497
462.609	503
462.961	509
463.314	514
463.666	519
464.018	524
464.370	528
464.722	533
465.074	539
465.426	543
465.777	548
466.129	552
466.481	556
466.833	558
467.184	560
467.536	561
467.888	562
468.239	562
468.591	563
468.943	564
469.294	567
469.646	570
469.997	573
470.348	578
470.700	584
471.051	591
471.402	599
471.754	609
472.105	618
472.456	628
472.807	640
473.158	652
473.509	665
473.860	679
474.211	694
474.562	709
474.913	725
475.264	742
475.615	759
475.966	776
476.316	792
476.667	809
477.018	825
477.368	842
477.719	860
478.070	877
478.420	893
478.771	909
479.121	924
479.472	940
479.822	957
480.172	974
480.523	994
480.873	1022
481.223	1067
481.573	1133
481.924	1216
482.274	1309
482.624	1407
482.974	1506
483.324	1592
483.674	1658
484.024	1703
484.374	1734
484.724	1755
485.073	1770
485.423	1784
485.773	1796
486.123	1809
486.472	1821
486.822	1832
487.172	1842
487.521	1851
487.871	1856
488.220	1854
488.570	1833
488.919	1791
489.268	1733
489.618	1663
489.967	1589
490.316	1513
490.666	1448
491.015	1403
491.364	1376
491.713	1365
492.062	1363
492.411	1367
492.760	1374
493.109	1382
493.458	1389
493.807	1396
494.156	1402
494.505	1408
494.853	1415
495.202	1423
495.551	1434
495.900	1444
496.248	1455
496.597	1466
496.945	1477
497.294	1487
497.642	1498
497.991	1511
498.339	1525
498.688	1540
499.036	1555
499.384	1568
499.732	1581
500.081	1591
500.429	1601
500.777	1610
501.125	1618
501.473	1627
501.821	1637
502.169	1645
502.517	1653
502.865	1658
503.213	1663
503.561	1667
503.908	1670
504.256	1673
504.604	1674
504.952	1676
505.299	1676
505.647	1674
505.994	1672
506.342	1669
506.689	1666
507.037	1664
507.384	1663
507.732	1663
508.079	1663
508.426	1664
508.774	1665
509.121	1665
509.468	1665
509.815	1664
510.162	1663
510.509	1663
510.856	1661
511.203	1659
511.550	1658
511.897	1657
512.244	1655
512.591	1654
512.938	1653
513.284	1652
513.631	1650
513.978	1647
514.324	1644
514.671	1641
515.018	1638
515.364	1636
515.711	1634
516.057	1631
516.403	1629
516.750	1627
517.096	1623
517.443	1619
517.789	1615
518.135	1610
518.481	1608
518.827	1605
519.173	1601
519.519	1598
519.865	1596
520.211	1594
520.557	1592
520.903	1591
521.249	1591
521.595	1591
521.941	1590
522.287	1590
522.632	1589
522.978	1589
523.324	1590
523.669	1591
524.015	1594
524.360	1599
524.706	1606
525.051	1615
525.397	1625
525.742	1636
526.087	1647
526.433	1658
526.778	1667
527.123	1675
527.468	1682
527.813	1689
528.158	1695
528.504	1703
528.849	1714
529.193	1728
529.538	1744
529.883	1764
530.228	1785
530.573	1810
530.918	1835
531.263	1860
531.607	1884
531.952	1906
532.296	1924
532.641	1939
532.986	1952
533.330	1965
533.675	1977
534.019	1994
534.363	2014
534.708	2038
535.052	2065
535.396	2093
535.741	2121
536.085	2146
536.429	2169
536.773	2188
537.117	2204
537.461	2219
537.805	2233
538.149	2247
538.493	2263
538.837	2280
539.181	2300
539.524	2325
539.868	2352
540.212	2383
540.556	2415
540.899	2449
541.243	2479
541.586	2505
541.930	2527
542.273	2544
542.617	2558
542.960	2573
543.304	2592
543.647	2615
543.990	2644
544.333	2676
544.677	2709
545.020	2741
545.363	2768
545.706	2791
546.049	2808
546.392	2820
546.735	2828
547.078	2833
547.421	2839
547.764	2846
548.106	2856
548.449	2869
548.792	2887
549.135	2911
549.477	2939
549.820	2968
550.162	2992
550.505	3013
550.847	3029
551.190	3042
551.532	3053
551.875	3064
552.217	3077
552.559	3093
552.901	3114
553.244	3138
553.586	3164
553.928	3191
554.270	3216
554.612	3237
554.954	3254
555.296	3270
555.638	3285
555.980	3301
556.322	3321
556.663	3347
557.005	3381
557.347	3423
557.689	3468
558.030	3513
558.372	3554
558.713	3592
559.055	3629
559.396	3665
559.738	3703
560.079	3743
560.421	3790
560.762	3841
561.103	3898
561.444	3960
561.786	4025
562.127	4094
562.468	4168
562.809	4250
563.150	4340
563.491	4437
563.832	4544
564.173	4665
564.514	4805
564.855	4971
565.195	5175
565.536	5418
565.877	5700
566.218	6021
566.558	6383
566.899	6780
567.239	7209
567.580	7658
567.920	8122
568.261	8588
568.601	9066
568.941	9561
569.282	10070
569.622	10599
569.962	11151
570.302	11739
570.643	12347
570.983	12960
571.323	13552
571.663	14124
572.003	14668
572.343	15177
572.683	15656
573.022	16144
573.362	16658
573.702	17189
574.042	17722
574.381	18232
574.721	18719
575.061	19185
575.400	19610
575.740	19987
576.079	20324
576.419	20658
576.758	21036
577.097	21482
577.437	21972
577.776	22494
578.115	23041
578.454	23596
578.794	24106
579.133	24500
579.472	24772
579.811	24931
580.150	24985
580.489	24959
580.828	24898
581.167	24840
581.505	24805
581.844	24780
582.183	24755
582.522	24747
582.860	24753
583.199	24757
583.538	24727
583.876	24619
584.215	24408
584.553	24081
584.891	23648
585.230	23114
585.568	22525
585.906	21927
586.245	21389
586.583	20926
586.921	20545
587.259	20199
587.597	19849
587.935	19487
588.273	19115
588.611	18769
588.949	18462
589.287	18206
589.625	18006
589.963	17849
590.300	17724
590.638	17610
590.976	17482
591.313	17331
591.651	17186
591.989	17062
592.326	16961
592.664	16873
593.001	16801
593.338	16758
593.676	16737
594.013	16748
594.350	16812
594.687	16920
595.025	17039
595.362	17148
595.699	17226
596.036	17275
596.373	17286
596.710	17253
597.047	17190
597.384	17113
597.720	17027
598.057	16956
598.394	16906
598.731	16878
599.067	16877
599.404	16908
599.741	16978
600.077	17075
600.414	17184
600.750	17300
601.087	17388
601.423	17429
601.759	17431
602.096	17401
602.432	17350
602.768	17272
603.104	17165
603.440	17033
603.776	16892
604.112	16737
604.448	16581
604.784	16416
605.120	16241
605.456	16070
605.792	15892
606.128	15704
606.463	15513
606.799	15320
607.135	15144
607.470	14969
607.806	14795
608.142	14627
608.477	14464
608.812	14309
609.148	14152
609.483	13987
609.819	13817
610.154	13655
610.489	13506
610.824	13376
611.159	13267
611.494	13158
611.830	13061
612.165	12966
612.500	12859
612.834	12735
613.169	12594
613.504	12438
613.839	12264
614.174	12068
614.509	11872
614.843	11676
615.178	11489
615.512	11304
615.847	11123
616.182	10942
616.516	10758
616.850	10566
617.185	10367
617.519	10163
617.853	9945
618.188	9719
618.522	9512
618.856	9336
619.190	9183
619.524	9050
619.858	8943
620.192	8859
620.526	8785
620.860	8710
621.194	8638
621.528	8568
621.862	8498
622.195	8412
622.529	8322
622.863	8229
623.196	8136
623.530	8041
623.864	7947
624.197	7851
624.530	7759
624.864	7675
625.197	7588
625.531	7489
625.864	7369
626.197	7242
626.530	7104
626.863	6949
627.196	6781
627.529	6611
627.862	6444
628.195	6278
628.528	6115
628.861	5958
629.194	5817
629.527	5683
629.860	5550
630.192	5420
630.525	5298
630.858	5184
631.190	5075
631.523	4971
631.855	4872
632.188	4788
632.520	4709
632.852	4635
633.185	4558
633.517	4484
633.849	4417
634.182	4356
634.514	4297
634.846	4245
635.178	4198
635.510	4158
635.842	4120
636.174	4084
636.506	4047
636.837	4011
637.169	3976
637.501	3938
637.833	3897
638.164	3851
638.496	3800
638.828	3742
639.159	3677
639.491	3606
639.822	3533
640.154	3459
640.485	3387
640.816	3316
641.147	3245
641.479	3177
641.810	3111
642.141	3047
642.472	2984
642.803	2921
643.134	2862
643.465	2811
643.796	2770
644.127	2741
644.458	2726
644.789	2725
645.119	2741
645.450	2766
645.781	2794
646.111	2822
646.442	2847
646.773	2866
647.103	2880
647.433	2893
647.764	2906
648.094	2924
648.425	2947
648.755	2975
649.085	3008
649.415	3042
649.745	3078
650.075	3115
650.405	3155
650.735	3245
651.065	3889
651.395	5906
651.725	9228
652.055	12851
652.385	16468
652.715	20084
653.044	23703
653.374	27327
653.704	30958
654.033	34248
654.363	36277
654.692	37621
655.022	38494
655.351	39064
655.680	39417
656.010	39608
656.339	39694
656.668	39716
656.997	39704
657.326	39668
657.655	39570
657.984	38904
658.313	36855
658.642	33489
658.971	29812
659.300	26134
659.629	22457
659.958	18781
660.286	15105
660.615	11430
660.944	8105
661.272	6045
661.601	4671
661.929	3767
662.258	3159
662.586	2762
662.915	2519
663.243	2379
663.571	2299
663.899	2251
664.228	2221
664.556	2200
664.884	2186
665.212	2176
665.540	2168
665.868	2164
666.196	2162
666.524	2161
666.852	2163
667.179	2171
667.507	2188
667.835	2212
668.162	2244
668.490	2284
668.818	2331
669.145	2381
669.473	2430
669.800	2476
670.127	2516
670.455	2549
670.782	2576
671.109	2601
671.436	2622
671.764	2639
672.091	2653
672.418	2664
672.745	2674
673.072	2684
673.399	2696
673.726	2708
674.053	2718
674.379	2721
674.706	2720
675.033	2718
675.359	2714
675.686	2708
676.013	2705
676.339	2706
676.666	2714
676.992	2734
677.318	2761
677.645	2794
677.971	2823
678.297	2850
678.624	2876
678.950	2901
679.276	2924
679.602	2947
679.928	2970
680.254	2999
680.580	3037
680.906	3084
681.232	3143
681.558	3205
681.883	3266
682.209	3323
682.535	3375
682.860	3423
683.186	3463
683.511	3495
683.837	3515
684.162	3531
684.488	3544
684.813	3557
685.138	3569
685.464	3580
685.789	3589
686.114	3598
686.439	3610
686.764	3623
687.089	3632
687.414	3633
687.739	3622
688.064	3600
688.389	3572
688.714	3539
689.039	3504
689.363	3466
689.688	3425
690.013	3385
690.337	3350
690.662	3321
690.986	3295
691.311	3268
691.635	3241
691.959	3216
692.284	3199
692.608	3195
692.932	3201
693.256	3211
693.580	3225
693.904	3243
694.228	3263
694.552	3282
694.876	3291
695.200	3288
695.524	3274
695.848	3252
696.172	3227
696.495	3199
696.819	3170
697.143	3141
697.466	3110
697.790	3083
698.113	3066
698.437	3058
698.760	3056
699.083	3054
699.407	3046
699.730	3029
700.053	3005
700.376	2970
700.699	2922
701.022	2862
701.345	2796
701.668	2735
701.991	2684
702.314	2649
702.637	2633
702.960	2639
703.283	2667
703.605	2716
703.928	2782
704.251	2856
704.573	2930
704.896	2997
705.218	3052
705.540	3095
705.863	3130
706.185	3158
706.507	3183
706.830	3206
707.152	3231
707.474	3257
707.796	3286
708.118	3317
708.440	3347
708.762	3373
709.084	3394
709.406	3406
709.728	3407
710.049	3401
710.371	3386
710.693	3364
711.014	3339
711.336	3316
711.658	3294
711.979	3275
712.301	3257
712.622	3239
712.943	3216
713.265	3189
713.586	3160
713.907	3133
714.228	3109
714.549	3090
714.870	3076
715.191	3070
715.512	3068
715.833	3065
716.154	3057
716.475	3043
716.796	3024
717.117	2995
717.437	2961
717.758	2923
718.078	2885
718.399	2847
718.719	2813
719.040	2784
719.360	2762
719.681	2746
720.001	2736
720.321	2730
720.642	2727
720.962	2729
721.282	2736
721.602	2745
721.922	2755
722.242	2769
722.562	2787
722.882	2809
723.202	2828
723.521	2846
723.841	2865
724.161	2884
724.481	2904
724.800	2924
725.120	2950
725.439	2982
725.759	3017
726.078	3057
726.398	3105
726.717	3165
727.036	3233
727.355	3305
727.675	3375
727.994	3441
728.313	3505
728.632	3559
728.951	3604
729.270	3644
729.589	3680
729.908	3725
730.226	3776
730.545	3832
730.864	3894
731.182	3960
731.501	4027
731.820	4090
732.138	4145
732.457	4194
732.775	4238
733.093	4274
733.412	4295
733.730	4301
734.048	4291
734.367	4272
734.685	4246
735.003	4216
735.321	4190
735.639	4169
735.957	4152
736.275	4137
736.593	4114
736.910	4080
737.228	4030
737.546	3968
737.863	3895
738.181	3815
738.499	3730
738.816	3646
739.134	3564
739.451	3481
739.768	3397
740.086	3317
740.403	3242
740.720	3173
741.038	3108
741.355	3045
741.672	2983
741.989	2919
742.306	2853
742.623	2785
742.940	2719
743.257	2658
743.573	2604
743.890	2560
744.207	2528
744.523	2505
744.840	2490
745.157	2480
745.473	2479
745.790	2488
746.106	2507
746.422	2536
746.739	2573
747.055	2616
747.371	2666
747.687	2718
748.004	2767
748.320	2810
748.636	2849
748.952	2887
749.268	2925
749.584	2963
749.899	2996
750.215	3031
750.531	3070
750.847	3114
751.162	3158
751.478	3200
751.793	3245
752.109	3291
752.424	3342
752.740	3394
753.055	3453
753.370	3524
753.686	3606
754.001	3694
754.316	3786
754.631	3884
754.946	3988
755.261	4098
755.576	4204
755.891	4306
756.206	4407
756.521	4514
756.836	4622
757.150	4727
757.465	4818
757.780	4898
758.094	4964
758.409	5015
758.723	5047
759.038	5061
759.352	5061
759.667	5047
759.981	5021
760.295	4995
760.609	4975
760.923	4963
761.238	4956
761.552	4951
761.866	4944
762.180	4933
762.493	4906
762.807	4854
763.121	4776
763.435	4677
763.749	4568
764.062	4466
764.376	4381
764.689	4322
765.003	4291
765.316	4286
765.630	4299
765.943	4323
766.257	4352
766.570	4375
766.883	4381
767.196	4370
767.509	4342
767.822	4300
768.135	4245
768.448	4187
768.761	4125
769.074	4072
769.387	4032
769.700	4007
770.013	3991
770.325	3979
770.638	3961
770.950	3929
771.263	3876
771.575	3802
771.888	3708
772.200	3599
772.513	3481
772.825	3356
773.137	3229
773.449	3105
773.761	2983
774.074	2871
774.386	2770
774.698	2686
775.010	2617
775.321	2568
775.633	2535
775.945	2517
776.257	2506
776.568	2502
776.880	2509
777.192	2528
777.503	2554
777.815	2588
778.126	2632
778.438	2684
778.749	2740
779.060	2796
779.372	2847
779.683	2897
779.994	2943
780.305	2978
780.616	3002
780.927	3018
781.238	3022
781.549	3015
781.860	2995
782.171	2967
782.481	2936
782.792	2905
783.103	2874
783.413	2840
783.724	2805
784.034	2771
784.345	2740
784.655	2711
784.966	2683
785.276	2652
785.586	2622
785.896	2592
786.207	2560
786.517	2527
786.827	2494
787.137	2463
787.447	2433
787.757	2404
788.066	2377
788.376	2351
788.686	2325
788.996	2298
789.305	2272
789.615	2251
789.925	2239
790.234	2236
790.544	2240
790.853	2250
791.162	2262
791.472	2271
791.781	2275
792.090	2270
792.399	2256
792.708	2234
793.017	2210
793.326	2187
793.635	2165
793.944	2145
794.253	2128
794.562	2115
794.871	2108
795.179	2102
795.488	2095
795.797	2083
796.105	2063
796.414	2032
796.722	1990
797.031	1937
797.339	1872
797.647	1800
797.956	1724
798.264	1654
798.572	1595
798.880	1550
799.188	1517
799.496	1492
799.804	1474
800.112	1460
800.420	1448
800.728	1436
801.035	1421
801.343	1404
801.651	1390
801.958	1387
802.266	1392
802.573	1404
802.881	1418
803.188	1437
803.496	1458
803.803	1479
804.110	1497
804.417	1514
804.724	1529
805.032	1543
805.339	1555
805.646	1562
805.953	1567
806.259	1568
806.566	1566
806.873	1559
807.180	1552
807.486	1543
807.793	1533
808.100	1517
808.406	1492
808.713	1457
809.019	1418
809.326	1378
809.632	1339
809.938	1303
810.244	1270
810.551	1243
810.857	1220
811.163	1199
811.469	1178
811.775	1155
812.081	1131
812.387	1109
812.692	1092
812.998	1078
813.304	1068
813.610	1059
813.915	1052
814.221	1046
814.526	1041
814.832	1037
815.137	1032
815.443	1025
815.748	1015
816.053	1001
816.358	987
816.664	975
816.969	963
817.274	953
817.579	944
817.884	940
818.189	938
818.493	938
818.798	935
819.103	929
819.408	920
819.712	909
820.017	897
820.321	885
820.626	873
820.930	862
821.235	854
821.539	851
821.843	851
822.148	853
822.452	854
822.756	854
823.060	850
823.364	845
823.668	837
823.972	828
824.276	819
824.580	812
824.883	808
825.187	806
825.491	806
825.795	806
826.098	806
826.402	805
826.705	802
827.008	796
827.312	787
827.615	774
827.918	758
828.222	740
828.525	721
828.828	704
829.131	686
829.434	668
829.737	652
830.040	639
830.343	628
830.645	618
830.948	609
831.251	600
831.553	592
831.856	586
832.159	579
832.461	571
832.764	563
833.066	555
833.368	549
833.671	543
833.973	540
834.275	536
834.577	532
834.879	528
835.181	522
835.483	517
835.785	510
836.087	501
836.389	490
836.690	477
836.992	464
837.294	451
837.595	436
837.897	421
838.198	406
838.500	392
838.801	379
839.103	369
839.404	359
839.705	351
840.006	344
840.307	339
840.608	335
840.910	332
841.210	330
841.511	328
841.812	324
842.113	320
842.414	316
842.715	310
843.015	304
843.316	297
843.616	291
843.917	285
844.217	280
844.518	276
844.818	273
845.118	271
845.419	269
845.719	268
846.019	267
846.319	265
846.619	264
846.919	263
847.219	262
847.519	260
847.819	259
848.118	259
848.418	262
848.718	270
849.017	282
849.317	301
849.616	323
849.916	348
850.215	377
850.515	407
850.814	438
851.113	466
851.412	490
851.712	513
852.011	534
852.310	554
852.609	571
852.908	586
853.206	600
853.505	612
853.804	623
854.103	633
854.401	639
854.700	642
854.999	640
855.297	632
855.595	619
855.894	601
856.192	580
856.491	555
856.789	527
857.087	499
857.385	473
857.683	449
857.981	427
858.279	407
858.577	388
858.875	372
859.173	359
859.471	348
859.768	339
860.066	331
860.363	324
860.661	319
860.959	315
861.256	311
861.553	306
861.851	300
862.148	294
862.445	288
862.742	283
863.039	278
863.337	274
863.634	271
863.931	269
864.227	268
864.524	267
864.821	267
865.118	267
865.415	264
865.711	261
866.008	256
866.304	252
866.601	246
866.897	242
867.194	239
867.490	236
867.786	235
868.082	235
868.379	235
868.675	236
868.971	236
869.267	237
869.563	237
869.859	236
870.154	235
870.450	233
870.746	232
871.042	231
871.337	231
871.633	231
871.928	233
872.224	234
872.519	237
872.815	238
873.110	239
873.405	238
873.700	238
873.995	237
874.291	237
874.586	238
874.881	240
875.175	242
875.470	245
875.765	250
876.060	255
876.355	260
876.649	265
876.944	270
877.238	275
877.533	279
877.827	281
878.122	284
878.416	285
878.710	284
879.005	284
879.299	283
879.593	282
879.887	281
880.181	280
880.475	278
880.769	276
881.063	273
881.356	270
881.650	267
881.944	263
882.238	221
882.531	211
882.825	207
883.118	214
883.412	212
883.705	208
883.998	215
884.291	219
884.585	221
884.878	230
>>>>>>>>>> END of Data <<<<<<<<<<