Date	2021年06月15日火曜日 04時19分36秒
Spectrometers	USB2+H05879
ダーク	使用
リファレンス	使用
積分時間[msec]	10
平均回数	280
ｽﾑｰｼﾞﾝｸﾞ	10
Electrical Dark	USE
ピクセル数	2048
計測モード	吸光度
保存開始波長[nm]	190.664
保存終了波長[nm]	884.878
保存ﾋﾟｯﾁ波長[nm]	全波長

>>>>>>>>>> Data Start <<<<<<<<<<<<
190.664	0.000000
191.040	0.000000
191.415	0.000000
191.791	-2.575027
192.166	-0.593313
192.542	-0.952808
192.917	0.000000
193.293	-0.316795
193.668	-0.589705
194.044	-0.876912
194.419	0.000000
194.794	-1.381892
195.170	-1.304444
195.545	-1.220970
195.920	-1.088245
196.296	-0.969425
196.671	-0.807840
197.046	-0.669685
197.421	-0.621346
197.796	-0.615779
198.171	-0.590204
198.546	-0.547267
198.922	-0.506659
199.297	-0.482664
199.672	-0.457249
200.047	-0.434526
200.422	-0.403189
200.796	-0.391170
201.171	-0.375104
201.546	-0.371897
201.921	-0.363583
202.296	-0.358391
202.671	-0.323019
203.045	-0.301115
203.420	-0.289857
203.795	-0.276104
204.170	-0.274516
204.544	-0.269293
204.919	-0.269467
205.294	-0.266626
205.668	-0.246363
206.043	-0.230936
206.417	-0.237372
206.792	-0.225914
207.166	-0.214801
207.541	-0.214759
207.915	-0.224167
208.289	-0.209594
208.664	-0.206169
209.038	-0.203850
209.412	-0.188932
209.787	-0.171626
210.161	-0.154637
210.535	-0.161882
210.909	-0.152753
211.284	-0.149089
211.658	-0.155766
212.032	-0.153979
212.406	-0.159999
212.780	-0.154750
213.154	-0.156829
213.528	-0.157622
213.902	-0.152270
214.276	-0.141296
214.650	-0.139677
215.024	-0.143496
215.398	-0.137795
215.772	-0.128683
216.145	-0.132498
216.519	-0.126135
216.893	-0.117517
217.267	-0.119050
217.640	-0.127934
218.014	-0.119614
218.388	-0.109674
218.761	-0.117065
219.135	-0.104070
219.508	-0.103603
219.882	-0.107075
220.256	-0.100979
220.629	-0.092398
221.003	-0.090135
221.376	-0.093532
221.749	-0.100151
222.123	-0.103446
222.496	-0.107088
222.869	-0.096980
223.243	-0.095208
223.616	-0.095466
223.989	-0.099843
224.362	-0.095579
224.736	-0.102274
225.109	-0.104576
225.482	-0.100996
225.855	-0.107644
226.228	-0.111234
226.601	-0.105268
226.974	-0.108789
227.347	-0.094835
227.720	-0.089761
228.093	-0.097114
228.466	-0.107534
228.839	-0.104519
229.212	-0.106120
229.585	-0.109982
229.957	-0.108400
230.330	-0.103411
230.703	-0.105618
231.076	-0.108141
231.448	-0.107854
231.821	-0.110508
232.194	-0.114473
232.566	-0.113820
232.939	-0.115166
233.311	-0.118497
233.684	-0.113275
234.056	-0.116291
234.429	-0.114481
234.801	-0.115200
235.174	-0.117476
235.546	-0.120934
235.918	-0.115454
236.291	-0.110078
236.663	-0.107252
237.035	-0.107565
237.408	-0.103338
237.780	-0.096898
238.152	-0.099768
238.524	-0.104607
238.896	-0.096714
239.268	-0.095683
239.641	-0.095783
240.013	-0.086331
240.385	-0.083506
240.757	-0.085118
241.129	-0.080293
241.500	-0.083848
241.872	-0.080365
242.244	-0.078429
242.616	-0.084329
242.988	-0.089579
243.360	-0.084231
243.731	-0.082766
244.103	-0.084301
244.475	-0.088948
244.847	-0.080639
245.218	-0.079664
245.590	-0.081059
245.961	-0.079285
246.333	-0.078066
246.705	-0.086749
247.076	-0.086709
247.448	-0.078754
247.819	-0.085504
248.190	-0.074766
248.562	-0.074086
248.933	-0.074575
249.305	-0.073621
249.676	-0.063106
250.047	-0.076868
250.418	-0.078615
250.790	-0.076802
251.161	-0.070052
251.532	-0.068901
251.903	-0.064532
252.274	-0.056189
252.645	-0.052324
253.016	-0.057499
253.387	-0.058484
253.758	-0.060652
254.129	-0.064682
254.500	-0.055066
254.871	-0.055027
255.242	-0.057934
255.613	-0.060815
255.984	-0.075695
256.355	-0.070378
256.725	-0.061526
257.096	-0.059963
257.467	-0.068706
257.838	-0.062169
258.208	-0.057541
258.579	-0.051096
258.949	-0.062765
259.320	-0.060343
259.690	-0.057583
260.061	-0.062745
260.431	-0.065218
260.802	-0.060742
261.172	-0.061361
261.543	-0.059874
261.913	-0.057358
262.283	-0.061944
262.654	-0.060292
263.024	-0.062715
263.394	-0.058374
263.764	-0.046292
264.135	-0.047830
264.505	-0.058653
264.875	-0.056836
265.245	-0.056050
265.615	-0.054713
265.985	-0.049391
266.355	-0.048751
266.725	-0.049321
267.095	-0.050028
267.465	-0.051944
267.835	-0.054401
268.205	-0.061239
268.575	-0.051836
268.944	-0.047341
269.314	-0.045348
269.684	-0.038223
270.054	-0.041495
270.423	-0.039850
270.793	-0.036509
271.163	-0.036416
271.532	-0.042156
271.902	-0.039956
272.271	-0.032006
272.641	-0.029634
273.010	-0.033128
273.380	-0.036654
273.749	-0.038248
274.119	-0.034419
274.488	-0.021362
274.857	-0.020016
275.227	-0.017238
275.596	-0.013560
275.965	-0.005356
276.335	-0.009398
276.704	-0.011720
277.073	-0.010492
277.442	-0.012901
277.811	-0.007642
278.180	-0.001403
278.549	0.000072
278.918	-0.004585
279.287	-0.007116
279.656	-0.002522
280.025	-0.007165
280.394	-0.008866
280.763	-0.004392
281.132	0.004339
281.501	0.007004
281.869	0.001191
282.238	-0.000037
282.607	-0.003973
282.976	-0.008512
283.344	-0.003294
283.713	-0.007800
284.081	-0.006592
284.450	0.002379
284.819	0.007463
285.187	0.013824
285.556	0.012509
285.924	0.008690
286.292	0.003076
286.661	0.000110
287.029	0.005644
287.398	0.003903
287.766	0.007541
288.134	0.008763
288.502	0.006685
288.871	0.010466
289.239	0.008972
289.607	0.011108
289.975	0.005231
290.343	0.012054
290.711	0.010070
291.079	0.006452
291.447	0.010659
291.815	0.010697
292.183	0.007556
292.551	0.006019
292.919	0.004674
293.287	0.006591
293.655	0.007854
294.022	0.014552
294.390	0.026552
294.758	0.025904
295.126	0.019630
295.493	0.022632
295.861	0.024647
296.229	0.022796
296.596	0.023633
296.964	0.022650
297.331	0.024416
297.699	0.032949
298.066	0.032172
298.434	0.041890
298.801	0.040081
299.168	0.034903
299.536	0.035194
299.903	0.036533
300.270	0.036575
300.638	0.043249
301.005	0.049959
301.372	0.051949
301.739	0.059348
302.106	0.065237
302.473	0.076163
302.840	0.086178
303.207	0.102349
303.574	0.116635
303.941	0.133062
304.308	0.141388
304.675	0.156447
305.042	0.166633
305.409	0.184624
305.776	0.203130
306.143	0.218643
306.509	0.242587
306.876	0.273988
307.243	0.296916
307.610	0.321384
307.976	0.341542
308.343	0.363111
308.709	0.385534
309.076	0.416167
309.442	0.439089
309.809	0.462693
310.175	0.485434
310.542	0.512435
310.908	0.526807
311.275	0.544796
311.641	0.566824
312.007	0.591733
312.373	0.614794
312.740	0.639575
313.106	0.654878
313.472	0.676142
313.838	0.699214
314.204	0.715434
314.570	0.726780
314.936	0.743561
315.302	0.756268
315.668	0.773045
316.034	0.787824
316.400	0.807787
316.766	0.818797
317.132	0.833225
317.498	0.844314
317.864	0.854773
318.230	0.863412
318.595	0.873974
318.961	0.882846
319.327	0.892366
319.692	0.897608
320.058	0.899659
320.424	0.904901
320.789	0.913389
321.155	0.918723
321.520	0.922331
321.886	0.929811
322.251	0.936626
322.616	0.942207
322.982	0.947125
323.347	0.949743
323.712	0.951924
324.078	0.953361
324.443	0.954411
324.808	0.955894
325.173	0.958095
325.539	0.959752
325.904	0.961398
326.269	0.962203
326.634	0.963042
326.999	0.964503
327.364	0.965801
327.729	0.968055
328.094	0.968464
328.459	0.968290
328.823	0.968658
329.188	0.969218
329.553	0.967952
329.918	0.967647
330.283	0.966981
330.647	0.967032
331.012	0.967168
331.377	0.967846
331.741	0.966559
332.106	0.967200
332.470	0.966993
332.835	0.966774
333.199	0.966588
333.564	0.966281
333.928	0.966447
334.293	0.966123
334.657	0.964933
335.021	0.964831
335.386	0.964410
335.750	0.963511
336.114	0.962961
336.478	0.962804
336.843	0.962013
337.207	0.962052
337.571	0.962430
337.935	0.962461
338.299	0.961773
338.663	0.960806
339.027	0.960382
339.391	0.960679
339.755	0.960180
340.119	0.959593
340.483	0.959003
340.846	0.958939
341.210	0.959068
341.574	0.959030
341.938	0.958987
342.301	0.959163
342.665	0.958994
343.029	0.959355
343.392	0.960385
343.756	0.960328
344.119	0.960198
344.483	0.960621
344.846	0.960970
345.210	0.961121
345.573	0.960922
345.937	0.960936
346.300	0.961689
346.663	0.962143
347.027	0.962307
347.390	0.962444
347.753	0.962508
348.116	0.963022
348.479	0.963372
348.843	0.963639
349.206	0.963855
349.569	0.964310
349.932	0.964797
350.295	0.965203
350.658	0.965531
351.021	0.965581
351.383	0.966309
351.746	0.966534
352.109	0.966812
352.472	0.967196
352.835	0.967321
353.197	0.967804
353.560	0.968500
353.923	0.968854
354.285	0.969062
354.648	0.969343
355.011	0.969800
355.373	0.970527
355.736	0.970553
356.098	0.970805
356.461	0.971520
356.823	0.972099
357.185	0.972606
357.548	0.972922
357.910	0.973121
358.272	0.973264
358.635	0.973260
358.997	0.973433
359.359	0.974071
359.721	0.974298
360.083	0.974488
360.445	0.974772
360.807	0.974921
361.169	0.975245
361.531	0.975598
361.893	0.975939
362.255	0.976519
362.617	0.977095
362.979	0.977558
363.341	0.977685
363.703	0.977820
364.064	0.977957
364.426	0.978222
364.788	0.978491
365.149	0.978791
365.511	0.979128
365.873	0.979601
366.234	0.980004
366.596	0.980462
366.957	0.980694
367.319	0.981264
367.680	0.981622
368.042	0.981571
368.403	0.981966
368.764	0.982299
369.126	0.982596
369.487	0.982714
369.848	0.982632
370.209	0.982991
370.570	0.983142
370.931	0.984180
371.293	0.984493
371.654	0.984854
372.015	0.985063
372.376	0.985258
372.737	0.985651
373.098	0.985991
373.458	0.986289
373.819	0.987102
374.180	0.987634
374.541	0.987921
374.902	0.988227
375.263	0.988551
375.623	0.989093
375.984	0.989684
376.345	0.990026
376.705	0.990528
377.066	0.991194
377.426	0.991832
377.787	0.991778
378.147	0.991912
378.508	0.991845
378.868	0.992221
379.228	0.992341
379.589	0.992711
379.949	0.993149
380.309	0.993527
380.670	0.993962
381.030	0.993995
381.390	0.994153
381.750	0.993948
382.110	0.994045
382.470	0.994277
382.830	0.994438
383.190	0.994824
383.550	0.994910
383.910	0.994813
384.270	0.994762
384.630	0.994720
384.990	0.994807
385.350	0.995201
385.709	0.995268
386.069	0.995530
386.429	0.995291
386.788	0.995309
387.148	0.995304
387.508	0.995141
387.867	0.994759
388.227	0.994379
388.586	0.994548
388.946	0.994353
389.305	0.994494
389.665	0.994300
390.024	0.993963
390.383	0.993925
390.743	0.993622
391.102	0.993212
391.461	0.993073
391.820	0.992780
392.179	0.992014
392.539	0.991523
392.898	0.991301
393.257	0.991275
393.616	0.990922
393.975	0.990735
394.334	0.990538
394.693	0.990120
395.051	0.989687
395.410	0.989454
395.769	0.989113
396.128	0.988535
396.487	0.987930
396.845	0.987284
397.204	0.986766
397.563	0.986121
397.921	0.985249
398.280	0.984375
398.638	0.983518
398.997	0.982617
399.355	0.981776
399.714	0.981284
400.072	0.980278
400.431	0.978913
400.789	0.977717
401.147	0.976731
401.506	0.975655
401.864	0.974363
402.222	0.973150
402.580	0.971777
402.938	0.970251
403.297	0.968942
403.655	0.967683
404.013	0.966330
404.371	0.964905
404.729	0.963440
405.087	0.962195
405.444	0.960999
405.802	0.959708
406.160	0.958507
406.518	0.957266
406.876	0.955829
407.233	0.954441
407.591	0.953341
407.949	0.952116
408.306	0.950633
408.664	0.949087
409.022	0.947676
409.379	0.946107
409.737	0.944529
410.094	0.943013
410.451	0.941817
410.809	0.940502
411.166	0.939018
411.523	0.937656
411.881	0.936261
412.238	0.934930
412.595	0.933410
412.952	0.931775
413.310	0.930118
413.667	0.928771
414.024	0.927356
414.381	0.925991
414.738	0.924403
415.095	0.922561
415.452	0.920925
415.809	0.919433
416.165	0.917783
416.522	0.916014
416.879	0.914169
417.236	0.912446
417.593	0.910808
417.949	0.908978
418.306	0.907085
418.663	0.905551
419.019	0.903689
419.376	0.901812
419.732	0.900154
420.089	0.898565
420.445	0.896965
420.802	0.895374
421.158	0.893566
421.514	0.891878
421.871	0.890111
422.227	0.888478
422.583	0.886957
422.939	0.885190
423.295	0.883331
423.652	0.881576
424.008	0.879910
424.364	0.878209
424.720	0.876446
425.076	0.874529
425.432	0.872462
425.788	0.870620
426.143	0.868402
426.499	0.866480
426.855	0.864635
427.211	0.862587
427.567	0.860448
427.922	0.858494
428.278	0.856309
428.634	0.854501
428.989	0.852430
429.345	0.850468
429.700	0.848428
430.056	0.846552
430.411	0.844589
430.767	0.842632
431.122	0.840570
431.478	0.838342
431.833	0.836295
432.188	0.834007
432.543	0.831903
432.899	0.829600
433.254	0.827027
433.609	0.824757
433.964	0.822442
434.319	0.819865
434.674	0.817365
435.029	0.815080
435.384	0.812669
435.739	0.810405
436.094	0.808074
436.449	0.805855
436.804	0.803564
437.158	0.801182
437.513	0.798745
437.868	0.796382
438.223	0.794080
438.577	0.791708
438.932	0.789477
439.287	0.787201
439.641	0.784911
439.996	0.782608
440.350	0.780471
440.704	0.778424
441.059	0.776151
441.413	0.773826
441.768	0.771449
442.122	0.769181
442.476	0.766733
442.830	0.764417
443.185	0.762420
443.539	0.760055
443.893	0.757851
444.247	0.755546
444.601	0.753369
444.955	0.751022
445.309	0.748695
445.663	0.746242
446.017	0.743890
446.371	0.741421
446.724	0.738915
447.078	0.736566
447.432	0.734018
447.786	0.731436
448.139	0.728929
448.493	0.726475
448.847	0.723846
449.200	0.721489
449.554	0.719035
449.907	0.716637
450.261	0.714167
450.614	0.711653
450.968	0.709256
451.321	0.706653
451.674	0.704158
452.027	0.701523
452.381	0.699103
452.734	0.696616
453.087	0.694037
453.440	0.691293
453.793	0.688703
454.146	0.686185
454.499	0.683731
454.852	0.681262
455.205	0.678948
455.558	0.676559
455.911	0.674216
456.264	0.671948
456.617	0.669607
456.970	0.667438
457.322	0.665338
457.675	0.663322
458.028	0.661087
458.380	0.658991
458.733	0.656934
459.086	0.654985
459.438	0.653058
459.791	0.650886
460.143	0.648804
460.496	0.646910
460.848	0.644920
461.200	0.642978
461.553	0.640957
461.905	0.638889
462.257	0.636879
462.609	0.634893
462.961	0.632997
463.314	0.631027
463.666	0.629119
464.018	0.627311
464.370	0.625516
464.722	0.623761
465.074	0.621886
465.426	0.620134
465.777	0.618525
466.129	0.616873
466.481	0.615199
466.833	0.613523
467.184	0.611919
467.536	0.610156
467.888	0.608323
468.239	0.606480
468.591	0.604447
468.943	0.602309
469.294	0.600277
469.646	0.598219
469.997	0.596010
470.348	0.593883
470.700	0.591907
471.051	0.589955
471.402	0.588047
471.754	0.586140
472.105	0.584217
472.456	0.582504
472.807	0.580835
473.158	0.579139
473.509	0.577577
473.860	0.575993
474.211	0.574552
474.562	0.573034
474.913	0.571512
475.264	0.570004
475.615	0.568548
475.966	0.567056
476.316	0.565590
476.667	0.564090
477.018	0.562668
477.368	0.561303
477.719	0.559893
478.070	0.558401
478.420	0.557003
478.771	0.555512
479.121	0.554064
479.472	0.552632
479.822	0.551127
480.172	0.549673
480.523	0.548141
480.873	0.546376
481.223	0.544333
481.573	0.542125
481.924	0.540032
482.274	0.538088
482.624	0.536227
482.974	0.534724
483.324	0.533594
483.674	0.532592
484.024	0.531627
484.374	0.530667
484.724	0.529743
485.073	0.528806
485.423	0.527954
485.773	0.527005
486.123	0.526104
486.472	0.525166
486.822	0.524245
487.172	0.523337
487.521	0.522400
487.871	0.521482
488.220	0.520588
488.570	0.519688
488.919	0.518654
489.268	0.517432
489.618	0.516037
489.967	0.514470
490.316	0.512590
490.666	0.510393
491.015	0.508353
491.364	0.506430
491.713	0.504669
492.062	0.503036
492.411	0.501510
492.760	0.499987
493.109	0.498519
493.458	0.497044
493.807	0.495673
494.156	0.494234
494.505	0.492780
494.853	0.491316
495.202	0.489858
495.551	0.488408
495.900	0.486917
496.248	0.485456
496.597	0.483945
496.945	0.482506
497.294	0.481132
497.642	0.479722
497.991	0.478325
498.339	0.476855
498.688	0.475561
499.036	0.474288
499.384	0.472976
499.732	0.471597
500.081	0.470205
500.429	0.468871
500.777	0.467591
501.125	0.466276
501.473	0.464969
501.821	0.463697
502.169	0.462521
502.517	0.461332
502.865	0.460113
503.213	0.458900
503.561	0.457703
503.908	0.456556
504.256	0.455387
504.604	0.454194
504.952	0.452989
505.299	0.451835
505.647	0.450640
505.994	0.449377
506.342	0.448109
506.689	0.446896
507.037	0.445695
507.384	0.444523
507.732	0.443345
508.079	0.442183
508.426	0.441001
508.774	0.439881
509.121	0.438778
509.468	0.437678
509.815	0.436568
510.162	0.435534
510.509	0.434507
510.856	0.433467
511.203	0.432423
511.550	0.431378
511.897	0.430397
512.244	0.429391
512.591	0.428323
512.938	0.427363
513.284	0.426307
513.631	0.425265
513.978	0.424188
514.324	0.423159
514.671	0.422173
515.018	0.421113
515.364	0.420081
515.711	0.419083
516.057	0.418024
516.403	0.417028
516.750	0.415996
517.096	0.414988
517.443	0.413972
517.789	0.413003
518.135	0.412030
518.481	0.411056
518.827	0.410074
519.173	0.408965
519.519	0.407940
519.865	0.406963
520.211	0.405952
520.557	0.404993
520.903	0.404048
521.249	0.403069
521.595	0.402046
521.941	0.400953
522.287	0.399941
522.632	0.398832
522.978	0.397764
523.324	0.396707
523.669	0.395620
524.015	0.394453
524.360	0.393287
524.706	0.392156
525.051	0.391016
525.397	0.389898
525.742	0.388801
526.087	0.387724
526.433	0.386826
526.778	0.385841
527.123	0.384838
527.468	0.383827
527.813	0.382786
528.158	0.381729
528.504	0.380710
528.849	0.379566
529.193	0.378475
529.538	0.377351
529.883	0.376165
530.228	0.374937
530.573	0.373811
530.918	0.372676
531.263	0.371589
531.607	0.370502
531.952	0.369423
532.296	0.368313
532.641	0.367232
532.986	0.366109
533.330	0.364978
533.675	0.363761
534.019	0.362559
534.363	0.361357
534.708	0.360101
535.052	0.358979
535.396	0.357837
535.741	0.356754
536.085	0.355645
536.429	0.354532
536.773	0.353367
537.117	0.352201
537.461	0.350983
537.805	0.349667
538.149	0.348296
538.493	0.346925
538.837	0.345554
539.181	0.344183
539.524	0.342788
539.868	0.341369
540.212	0.339965
540.556	0.338572
540.899	0.337188
541.243	0.335827
541.586	0.334445
541.930	0.333116
542.273	0.331669
542.617	0.330137
542.960	0.328541
543.304	0.327054
543.647	0.325410
543.990	0.323809
544.333	0.322168
544.677	0.320619
545.020	0.319144
545.363	0.317675
545.706	0.316192
546.049	0.314720
546.392	0.313239
546.735	0.311724
547.078	0.310134
547.421	0.308512
547.764	0.306809
548.106	0.305077
548.449	0.303330
548.792	0.301583
549.135	0.299819
549.477	0.298116
549.820	0.296549
550.162	0.294981
550.505	0.293251
550.847	0.291621
551.190	0.289892
551.532	0.288172
551.875	0.286291
552.217	0.284291
552.559	0.282359
552.901	0.280484
553.244	0.278649
553.586	0.276821
553.928	0.275082
554.270	0.273442
554.612	0.271905
554.954	0.270304
555.296	0.268654
555.638	0.266953
555.980	0.265129
556.322	0.263203
556.663	0.261193
557.005	0.259110
557.347	0.257044
557.689	0.255117
558.030	0.253222
558.372	0.251280
558.713	0.249383
559.055	0.247496
559.396	0.245618
559.738	0.243680
560.079	0.241740
560.421	0.239840
560.762	0.237964
561.103	0.236065
561.444	0.234212
561.786	0.232332
562.127	0.230553
562.468	0.228710
562.809	0.226810
563.150	0.224850
563.491	0.222874
563.832	0.220829
564.173	0.218663
564.514	0.216477
564.855	0.214219
565.195	0.211865
565.536	0.209559
565.877	0.207243
566.218	0.204997
566.558	0.202831
566.899	0.200778
567.239	0.198884
567.580	0.197162
567.920	0.195578
568.261	0.194165
568.601	0.192808
568.941	0.191539
569.282	0.190352
569.622	0.189173
569.962	0.187973
570.302	0.186864
570.643	0.185803
570.983	0.184822
571.323	0.183907
571.663	0.183053
572.003	0.182171
572.343	0.181274
572.683	0.180303
573.022	0.179247
573.362	0.178186
573.702	0.177084
574.042	0.176015
574.381	0.174980
574.721	0.173941
575.061	0.172996
575.400	0.172106
575.740	0.171234
576.079	0.170353
576.419	0.169349
576.758	0.168276
577.097	0.167199
577.437	0.166031
577.776	0.164806
578.115	0.163597
578.454	0.162471
578.794	0.161459
579.133	0.160617
579.472	0.159861
579.811	0.159160
580.150	0.158489
580.489	0.157765
580.828	0.157011
581.167	0.156215
581.505	0.155416
581.844	0.154627
582.183	0.153790
582.522	0.152963
582.860	0.152154
583.199	0.151377
583.538	0.150700
583.876	0.150068
584.215	0.149456
584.553	0.148873
584.891	0.148337
585.230	0.147769
585.568	0.147141
585.906	0.146437
586.245	0.145654
586.583	0.144878
586.921	0.144188
587.259	0.143585
587.597	0.143026
587.935	0.142422
588.273	0.141750
588.611	0.140950
588.949	0.140117
589.287	0.139271
589.625	0.138420
589.963	0.137619
590.300	0.136877
590.638	0.136192
590.976	0.135554
591.313	0.134852
591.651	0.134120
591.989	0.133401
592.326	0.132722
592.664	0.132123
593.001	0.131515
593.338	0.131007
593.676	0.130550
594.013	0.130077
594.350	0.129603
594.687	0.129176
595.025	0.128820
595.362	0.128454
595.699	0.128061
596.036	0.127673
596.373	0.127261
596.710	0.126828
597.047	0.126361
597.384	0.125916
597.720	0.125448
598.057	0.124955
598.394	0.124472
598.731	0.123986
599.067	0.123485
599.404	0.122978
599.741	0.122479
600.077	0.122025
600.414	0.121589
600.750	0.121210
601.087	0.120870
601.423	0.120531
601.759	0.120150
602.096	0.119744
602.432	0.119393
602.768	0.119050
603.104	0.118670
603.440	0.118303
603.776	0.117964
604.112	0.117619
604.448	0.117271
604.784	0.116934
605.120	0.116612
605.456	0.116349
605.792	0.116101
606.128	0.115815
606.463	0.115566
606.799	0.115248
607.135	0.114976
607.470	0.114714
607.806	0.114400
608.142	0.114106
608.477	0.113811
608.812	0.113530
609.148	0.113286
609.483	0.112973
609.819	0.112689
610.154	0.112379
610.489	0.112056
610.824	0.111728
611.159	0.111462
611.494	0.111167
611.830	0.110924
612.165	0.110755
612.500	0.110543
612.834	0.110349
613.169	0.110214
613.504	0.109980
613.839	0.109774
614.174	0.109525
614.509	0.109255
614.843	0.109006
615.178	0.108744
615.512	0.108535
615.847	0.108338
616.182	0.108153
616.516	0.108030
616.850	0.107872
617.185	0.107719
617.519	0.107542
617.853	0.107356
618.188	0.107110
618.522	0.106850
618.856	0.106522
619.190	0.106184
619.524	0.105861
619.858	0.105566
620.192	0.105285
620.526	0.105076
620.860	0.104925
621.194	0.104733
621.528	0.104496
621.862	0.104292
622.195	0.104111
622.529	0.103842
622.863	0.103595
623.196	0.103328
623.530	0.103089
623.864	0.102864
624.197	0.102664
624.530	0.102480
624.864	0.102308
625.197	0.102155
625.531	0.101998
625.864	0.101831
626.197	0.101635
626.530	0.101487
626.863	0.101306
627.196	0.101068
627.529	0.100831
627.862	0.100521
628.195	0.100255
628.528	0.100007
628.861	0.099723
629.194	0.099480
629.527	0.099297
629.860	0.099099
630.192	0.098866
630.525	0.098547
630.858	0.098288
631.190	0.098031
631.523	0.097723
631.855	0.097325
632.188	0.096978
632.520	0.096658
632.852	0.096447
633.185	0.096194
633.517	0.095948
633.849	0.095666
634.182	0.095493
634.514	0.095373
634.846	0.095275
635.178	0.095162
635.510	0.095080
635.842	0.094977
636.174	0.094829
636.506	0.094657
636.837	0.094447
637.169	0.094276
637.501	0.094153
637.833	0.093983
638.164	0.093795
638.496	0.093588
638.828	0.093414
639.159	0.093205
639.491	0.092938
639.822	0.092649
640.154	0.092306
640.485	0.091896
640.816	0.091562
641.147	0.091159
641.479	0.090627
641.810	0.090221
642.141	0.089907
642.472	0.089545
642.803	0.089175
643.134	0.088779
643.465	0.088387
643.796	0.088078
644.127	0.087772
644.458	0.087554
644.789	0.087411
645.119	0.087266
645.450	0.087343
645.781	0.087558
646.111	0.087882
646.442	0.088084
646.773	0.088213
647.103	0.088299
647.433	0.088377
647.764	0.088405
648.094	0.088403
648.425	0.088496
648.755	0.088552
649.085	0.088482
649.415	0.088524
649.745	0.088646
650.075	0.088747
650.405	0.088763
650.735	0.087462
651.065	0.079110
651.395	0.072421
651.725	0.060937
652.055	0.041508
652.385	0.030309
652.715	0.023016
653.044	0.017885
653.374	0.014118
653.704	0.011231
654.033	0.014311
654.363	0.018855
654.692	0.021408
655.022	0.022903
655.351	0.023799
655.680	0.024323
656.010	0.024603
656.339	0.024715
656.668	0.024737
656.997	0.024710
657.326	0.024652
657.655	0.024599
657.984	0.024390
658.313	0.022372
658.642	0.020555
658.971	0.024111
659.300	0.028633
659.629	0.034582
659.958	0.042747
660.286	0.054663
660.615	0.073694
660.944	0.085400
661.272	0.083808
661.601	0.083169
661.929	0.083066
662.258	0.083341
662.586	0.083657
662.915	0.083859
663.243	0.083788
663.571	0.083568
663.899	0.083252
664.228	0.082937
664.556	0.082902
664.884	0.082709
665.212	0.082699
665.540	0.082698
665.868	0.082665
666.196	0.082604
666.524	0.082535
666.852	0.082509
667.179	0.082497
667.507	0.082432
667.835	0.082476
668.162	0.082510
668.490	0.082595
668.818	0.082700
669.145	0.082815
669.473	0.083013
669.800	0.083232
670.127	0.083499
670.455	0.083625
670.782	0.083827
671.109	0.083927
671.436	0.084028
671.764	0.084140
672.091	0.084152
672.418	0.084122
672.745	0.084152
673.072	0.084264
673.399	0.084272
673.726	0.084312
674.053	0.084352
674.379	0.084357
674.706	0.084366
675.033	0.084256
675.359	0.084201
675.686	0.084102
676.013	0.084109
676.339	0.084015
676.666	0.083832
676.992	0.083791
677.318	0.083786
677.645	0.083727
677.971	0.083692
678.297	0.083698
678.624	0.083740
678.950	0.083718
679.276	0.083714
679.602	0.083633
679.928	0.083452
680.254	0.083335
680.580	0.083229
680.906	0.083127
681.232	0.083147
681.558	0.083263
681.883	0.083405
682.209	0.083584
682.535	0.083701
682.860	0.083716
683.186	0.083831
683.511	0.083863
683.837	0.083805
684.162	0.083795
684.488	0.083809
684.813	0.083886
685.138	0.083812
685.464	0.083731
685.789	0.083638
686.114	0.083553
686.439	0.083560
686.764	0.083599
687.089	0.083594
687.414	0.083653
687.739	0.083747
688.064	0.083818
688.389	0.083799
688.714	0.083768
689.039	0.083644
689.363	0.083562
689.688	0.083509
690.013	0.083410
690.337	0.083392
690.662	0.083350
690.986	0.083340
691.311	0.083268
691.635	0.083261
691.959	0.083263
692.284	0.083158
692.608	0.083103
692.932	0.083049
693.256	0.083032
693.580	0.083114
693.904	0.083274
694.228	0.083359
694.552	0.083488
694.876	0.083560
695.200	0.083589
695.524	0.083550
695.848	0.083474
696.172	0.083398
696.495	0.083259
696.819	0.083116
697.143	0.082909
697.466	0.082756
697.790	0.082539
698.113	0.082415
698.437	0.082177
698.760	0.081950
699.083	0.081914
699.407	0.081880
699.730	0.081875
700.053	0.081836
700.376	0.081747
700.699	0.081512
701.022	0.081207
701.345	0.080768
701.668	0.080241
701.991	0.079689
702.314	0.079155
702.637	0.078690
702.960	0.078261
703.283	0.077915
703.605	0.077606
703.928	0.077521
704.251	0.077527
704.573	0.077482
704.896	0.077471
705.218	0.077414
705.540	0.077366
705.863	0.077175
706.185	0.076908
706.507	0.076566
706.830	0.076202
707.152	0.075643
707.474	0.075296
707.796	0.074948
708.118	0.074586
708.440	0.074372
708.762	0.074246
709.084	0.074098
709.406	0.073950
709.728	0.073784
710.049	0.073668
710.371	0.073561
710.693	0.073327
711.014	0.072965
711.336	0.072754
711.658	0.072506
711.979	0.072364
712.301	0.072185
712.622	0.072095
712.943	0.071970
713.265	0.071851
713.586	0.071757
713.907	0.071863
714.228	0.071856
714.549	0.071869
714.870	0.072033
715.191	0.072065
715.512	0.072072
715.833	0.072161
716.154	0.072164
716.475	0.072142
716.796	0.072057
717.117	0.071891
717.437	0.071613
717.758	0.071447
718.078	0.071141
718.399	0.070798
718.719	0.070424
719.040	0.070061
719.360	0.069800
719.681	0.069612
720.001	0.069492
720.321	0.069378
720.642	0.069134
720.962	0.068937
721.282	0.068863
721.602	0.068688
721.922	0.068551
722.242	0.068392
722.562	0.068254
722.882	0.068144
723.202	0.068076
723.521	0.067950
723.841	0.067923
724.161	0.067873
724.481	0.067831
724.800	0.067732
725.120	0.067673
725.439	0.067665
725.759	0.067663
726.078	0.067572
726.398	0.067539
726.717	0.067560
727.036	0.067572
727.355	0.067750
727.675	0.067883
727.994	0.067981
728.313	0.068131
728.632	0.068213
728.951	0.068320
729.270	0.068269
729.589	0.068187
729.908	0.068005
730.226	0.067874
730.545	0.067644
730.864	0.067478
731.182	0.067295
731.501	0.067199
731.820	0.067188
732.138	0.067109
732.457	0.067030
732.775	0.067010
733.093	0.066970
733.412	0.066918
733.730	0.066844
734.048	0.066611
734.367	0.066389
734.685	0.066111
735.003	0.065735
735.321	0.065455
735.639	0.065093
735.957	0.064868
736.275	0.064702
736.593	0.064635
736.910	0.064561
737.228	0.064541
737.546	0.064519
737.863	0.064461
738.181	0.064278
738.499	0.064007
738.816	0.063793
739.134	0.063549
739.451	0.063318
739.768	0.063083
740.086	0.062793
740.403	0.062481
740.720	0.062320
741.038	0.062022
741.355	0.061674
741.672	0.061384
741.989	0.061070
742.306	0.060744
742.623	0.060296
742.940	0.059832
743.257	0.059219
743.573	0.058658
743.890	0.058031
744.207	0.057445
744.523	0.057010
744.840	0.056693
745.157	0.056408
745.473	0.056008
745.790	0.055805
746.106	0.055419
746.422	0.055100
746.739	0.054825
747.055	0.054580
747.371	0.054364
747.687	0.054339
748.004	0.054341
748.320	0.054368
748.636	0.054305
748.952	0.054235
749.268	0.054390
749.584	0.054473
749.899	0.054546
750.215	0.054487
750.531	0.054470
750.847	0.054502
751.162	0.054492
751.478	0.054576
751.793	0.054489
752.109	0.054385
752.424	0.054244
752.740	0.054211
753.055	0.054213
753.370	0.054144
753.686	0.054282
754.001	0.054474
754.316	0.054624
754.631	0.054812
754.946	0.054903
755.261	0.055027
755.576	0.055145
755.891	0.055071
756.206	0.054998
756.521	0.054866
756.836	0.054868
757.150	0.054840
757.465	0.054853
757.780	0.054841
758.094	0.054817
758.409	0.054832
758.723	0.054961
759.038	0.054958
759.352	0.054936
759.667	0.054843
759.981	0.054765
760.295	0.054487
760.609	0.054179
760.923	0.053925
761.238	0.053599
761.552	0.053320
761.866	0.053070
762.180	0.052913
762.493	0.052860
762.807	0.052715
763.121	0.052605
763.435	0.052395
763.749	0.052152
764.062	0.051894
764.376	0.051619
764.689	0.051288
765.003	0.051028
765.316	0.050760
765.630	0.050653
765.943	0.050443
766.257	0.050331
766.570	0.050194
766.883	0.050031
767.196	0.049778
767.509	0.049409
767.822	0.049109
768.135	0.048776
768.448	0.048500
768.761	0.048077
769.074	0.047675
769.387	0.047347
769.700	0.047058
770.013	0.046833
770.325	0.046662
770.638	0.046497
770.950	0.046297
771.263	0.046093
771.575	0.045841
771.888	0.045485
772.200	0.045084
772.513	0.044733
772.825	0.044266
773.137	0.043810
773.449	0.043519
773.761	0.043215
774.074	0.042899
774.386	0.042641
774.698	0.042326
775.010	0.041835
775.321	0.041565
775.633	0.041170
775.945	0.040977
776.257	0.040849
776.568	0.040588
776.880	0.040471
777.192	0.040271
777.503	0.040130
777.815	0.040152
778.126	0.040115
778.438	0.040189
778.749	0.040367
779.060	0.040504
779.372	0.040603
779.683	0.040676
779.994	0.040744
780.305	0.040703
780.616	0.040827
780.927	0.040901
781.238	0.040886
781.549	0.040963
781.860	0.040923
782.171	0.040983
782.481	0.040931
782.792	0.040850
783.103	0.040907
783.413	0.040891
783.724	0.040741
784.034	0.040671
784.345	0.040412
784.655	0.040247
784.966	0.039980
785.276	0.039818
785.586	0.039656
785.896	0.039513
786.207	0.039421
786.517	0.039319
786.827	0.039366
787.137	0.039240
787.447	0.039035
787.757	0.039090
788.066	0.039080
788.376	0.039116
788.686	0.039051
788.996	0.039072
789.305	0.039051
789.615	0.038974
789.925	0.038751
790.234	0.038836
790.544	0.038914
790.853	0.039010
791.162	0.039064
791.472	0.039217
791.781	0.039238
792.090	0.039265
792.399	0.039238
792.708	0.039141
793.017	0.038982
793.326	0.038777
793.635	0.038649
793.944	0.038529
794.253	0.038219
794.562	0.037920
794.871	0.037768
795.179	0.037623
795.488	0.037444
795.797	0.037364
796.105	0.037229
796.414	0.037292
796.722	0.037196
797.031	0.036934
797.339	0.036666
797.647	0.036333
797.956	0.035878
798.264	0.035305
798.572	0.034829
798.880	0.034487
799.188	0.034195
799.496	0.034000
799.804	0.033905
800.112	0.033637
800.420	0.033499
800.728	0.033497
801.035	0.033389
801.343	0.032999
801.651	0.032613
801.958	0.032348
802.266	0.032041
802.573	0.032079
802.881	0.032099
803.188	0.031983
803.496	0.032162
803.803	0.032415
804.110	0.032547
804.417	0.032606
804.724	0.032676
805.032	0.032669
805.339	0.032679
805.646	0.032636
805.953	0.032322
806.259	0.032228
806.566	0.032044
806.873	0.031995
807.180	0.031965
807.486	0.032010
807.793	0.032097
808.100	0.032213
808.406	0.032214
808.713	0.032293
809.019	0.031859
809.326	0.031412
809.632	0.031087
809.938	0.030362
810.244	0.029808
810.551	0.029324
810.857	0.028872
811.163	0.028567
811.469	0.028264
811.775	0.027919
812.081	0.027766
812.387	0.027777
812.692	0.027589
812.998	0.027875
813.304	0.027688
813.610	0.027743
813.915	0.027667
814.221	0.027625
814.526	0.027554
814.832	0.027603
815.137	0.027403
815.443	0.027540
815.748	0.027488
816.053	0.027415
816.358	0.027499
816.664	0.027468
816.969	0.027551
817.274	0.027753
817.579	0.027648
817.884	0.027784
818.189	0.027835
818.493	0.027649
818.798	0.027773
819.103	0.027616
819.408	0.027348
819.712	0.027258
820.017	0.026880
820.321	0.026636
820.626	0.026484
820.930	0.026146
821.235	0.025913
821.539	0.025711
821.843	0.025603
822.148	0.025525
822.452	0.025552
822.756	0.025618
823.060	0.025595
823.364	0.025882
823.668	0.025821
823.972	0.025939
824.276	0.025803
824.580	0.025675
824.883	0.025960
825.187	0.025901
825.491	0.026010
825.795	0.026091
826.098	0.026189
826.402	0.026221
826.705	0.026422
827.008	0.026299
827.312	0.026371
827.615	0.026229
827.918	0.026141
828.222	0.025937
828.525	0.025869
828.828	0.025940
829.131	0.026024
829.434	0.025773
829.737	0.025038
830.040	0.024645
830.343	0.024243
830.645	0.024185
830.948	0.024019
831.251	0.023804
831.553	0.023552
831.856	0.023457
832.159	0.023587
832.461	0.023378
832.764	0.023348
833.066	0.023002
833.368	0.022987
833.671	0.022965
833.973	0.022857
834.275	0.022935
834.577	0.022995
834.879	0.022772
835.181	0.022265
835.483	0.021712
835.785	0.021439
836.087	0.021429
836.389	0.021315
836.690	0.020919
836.992	0.020023
837.294	0.019288
837.595	0.018127
837.897	0.017379
838.198	0.016391
838.500	0.015249
838.801	0.014496
839.103	0.013957
839.404	0.013837
839.705	0.013364
840.006	0.013304
840.307	0.013418
840.608	0.012993
840.910	0.012988
841.210	0.013302
841.511	0.013666
841.812	0.013711
842.113	0.014263
842.414	0.013913
842.715	0.013736
843.015	0.012842
843.316	0.012812
843.616	0.012251
843.917	0.012080
844.217	0.011718
844.518	0.011642
844.818	0.011271
845.118	0.011529
845.419	0.011674
845.719	0.011109
846.019	0.011091
846.319	0.011040
846.619	0.010587
846.919	0.010760
847.219	0.010771
847.519	0.010941
847.819	0.010937
848.118	0.010318
848.418	0.009478
848.718	0.009243
849.017	0.008993
849.317	0.009718
849.616	0.010213
849.916	0.011528
850.215	0.012446
850.515	0.013162
850.814	0.013651
851.113	0.014223
851.412	0.014786
851.712	0.014826
852.011	0.014988
852.310	0.015473
852.609	0.015340
852.908	0.015493
853.206	0.015806
853.505	0.016012
853.804	0.015841
854.103	0.015888
854.401	0.016240
854.700	0.016328
854.999	0.016346
855.297	0.016384
855.595	0.016686
855.894	0.016692
856.192	0.016414
856.491	0.016244
856.789	0.015953
857.087	0.015518
857.385	0.015261
857.683	0.014826
857.981	0.014393
858.279	0.014178
858.577	0.013383
858.875	0.013318
859.173	0.012899
859.471	0.012648
859.768	0.012353
860.066	0.012216
860.363	0.011648
860.661	0.011446
860.959	0.011586
861.256	0.011720
861.553	0.011698
861.851	0.010885
862.148	0.010255
862.445	0.009862
862.742	0.009443
863.039	0.009065
863.337	0.009231
863.634	0.008913
863.931	0.008216
864.227	0.008061
864.524	0.007991
864.821	0.008267
865.118	0.007989
865.415	0.007824
865.711	0.007027
866.008	0.005922
866.304	0.006014
866.601	0.006111
866.897	0.005381
867.194	0.004741
867.490	0.004913
867.786	0.004873
868.082	0.005575
868.379	0.005604
868.675	0.006157
868.971	0.005716
869.267	0.006095
869.563	0.006395
869.859	0.006559
870.154	0.006267
870.450	0.006506
870.746	0.005922
871.042	0.006036
871.337	0.006092
871.633	0.005861
871.928	0.005957
872.224	0.006843
872.519	0.006246
872.815	0.005841
873.110	0.006391
873.405	0.006298
873.700	0.005891
873.995	0.005720
874.291	0.004886
874.586	0.005219
874.881	0.004770
875.175	0.005012
875.470	0.004655
875.765	0.004221
876.060	0.004014
876.355	0.004376
876.649	0.004458
876.944	0.004919
877.238	0.004676
877.533	0.004428
877.827	0.005144
878.122	0.005649
878.416	0.005938
878.710	0.006825
879.005	0.006916
879.299	0.006715
879.593	0.006979
879.887	0.006658
880.181	0.006366
880.475	0.007162
880.769	0.006982
881.063	0.007221
881.356	0.007944
881.650	0.008091
881.944	0.008041
882.238	0.003137
882.531	0.011469
882.825	-0.004395
883.118	-0.006123
883.412	0.017916
883.705	0.002834
883.998	0.008401
884.291	0.018665
884.585	0.001819
884.878	0.000768
>>>>>>>>>> END of Data <<<<<<<<<<
>>>>>>>>>> Raw Data Start <<<<<<<<
190.664	-393
191.040	4
191.415	4
191.791	7
192.166	8
192.542	11
192.917	2
193.293	6
193.668	8
194.044	6
194.419	-10
194.794	9
195.170	10
195.545	10
195.920	10
196.296	11
196.671	11
197.046	12
197.421	13
197.796	13
198.171	14
198.546	14
198.922	15
199.297	15
199.672	16
200.047	16
200.422	17
200.796	16
201.171	17
201.546	17
201.921	17
202.296	17
202.671	17
203.045	17
203.420	18
203.795	18
204.170	18
204.544	18
204.919	18
205.294	18
205.668	17
206.043	17
206.417	17
206.792	17
207.166	16
207.541	16
207.915	16
208.289	16
208.664	16
209.038	16
209.412	16
209.787	16
210.161	16
210.535	16
210.909	16
211.284	16
211.658	16
212.032	16
212.406	16
212.780	15
213.154	15
213.528	15
213.902	15
214.276	15
214.650	15
215.024	15
215.398	15
215.772	15
216.145	15
216.519	15
216.893	15
217.267	15
217.640	15
218.014	16
218.388	16
218.761	16
219.135	16
219.508	16
219.882	16
220.256	16
220.629	16
221.003	16
221.376	16
221.749	16
222.123	16
222.496	16
222.869	16
223.243	16
223.616	16
223.989	16
224.362	16
224.736	17
225.109	17
225.482	17
225.855	17
226.228	17
226.601	17
226.974	17
227.347	16
227.720	16
228.093	16
228.466	16
228.839	16
229.212	17
229.585	16
229.957	16
230.330	16
230.703	16
231.076	17
231.448	17
231.821	16
232.194	17
232.566	16
232.939	16
233.311	16
233.684	16
234.056	16
234.429	16
234.801	16
235.174	17
235.546	17
235.918	17
236.291	17
236.663	17
237.035	17
237.408	18
237.780	18
238.152	18
238.524	18
238.896	18
239.268	18
239.641	18
240.013	18
240.385	18
240.757	18
241.129	18
241.500	18
241.872	18
242.244	18
242.616	19
242.988	19
243.360	19
243.731	19
244.103	19
244.475	19
244.847	19
245.218	19
245.590	19
245.961	19
246.333	19
246.705	20
247.076	20
247.448	20
247.819	20
248.190	20
248.562	20
248.933	20
249.305	20
249.676	20
250.047	21
250.418	21
250.790	21
251.161	20
251.532	20
251.903	20
252.274	19
252.645	19
253.016	19
253.387	19
253.758	20
254.129	20
254.500	20
254.871	20
255.242	20
255.613	20
255.984	20
256.355	20
256.725	20
257.096	19
257.467	20
257.838	19
258.208	19
258.579	19
258.949	20
259.320	20
259.690	20
260.061	21
260.431	21
260.802	21
261.172	21
261.543	21
261.913	21
262.283	21
262.654	21
263.024	21
263.394	21
263.764	20
264.135	21
264.505	22
264.875	22
265.245	21
265.615	21
265.985	21
266.355	21
266.725	21
267.095	21
267.465	22
267.835	21
268.205	21
268.575	21
268.944	21
269.314	20
269.684	20
270.054	20
270.423	20
270.793	20
271.163	20
271.532	20
271.902	20
272.271	19
272.641	19
273.010	20
273.380	20
273.749	20
274.119	20
274.488	20
274.857	20
275.227	20
275.596	20
275.965	20
276.335	20
276.704	20
277.073	20
277.442	20
277.811	21
278.180	21
278.549	20
278.918	21
279.287	21
279.656	21
280.025	21
280.394	21
280.763	21
281.132	21
281.501	21
281.869	21
282.238	21
282.607	21
282.976	21
283.344	20
283.713	21
284.081	20
284.450	20
284.819	20
285.187	20
285.556	20
285.924	20
286.292	20
286.661	20
287.029	20
287.398	20
287.766	20
288.134	20
288.502	20
288.871	20
289.239	20
289.607	20
289.975	21
290.343	21
290.711	21
291.079	21
291.447	21
291.815	21
292.183	21
292.551	21
292.919	21
293.287	21
293.655	21
294.022	21
294.390	21
294.758	21
295.126	21
295.493	21
295.861	21
296.229	21
296.596	21
296.964	21
297.331	21
297.699	21
298.066	21
298.434	21
298.801	21
299.168	21
299.536	21
299.903	21
300.270	21
300.638	21
301.005	21
301.372	22
301.739	22
302.106	22
302.473	22
302.840	22
303.207	22
303.574	22
303.941	22
304.308	22
304.675	23
305.042	23
305.409	23
305.776	23
306.143	23
306.509	23
306.876	23
307.243	23
307.610	23
307.976	23
308.343	24
308.709	24
309.076	24
309.442	24
309.809	25
310.175	25
310.542	25
310.908	26
311.275	27
311.641	27
312.007	28
312.373	28
312.740	29
313.106	30
313.472	30
313.838	31
314.204	32
314.570	33
314.936	34
315.302	35
315.668	36
316.034	37
316.400	38
316.766	39
317.132	40
317.498	41
317.864	42
318.230	44
318.595	45
318.961	46
319.327	48
319.692	50
320.058	52
320.424	54
320.789	56
321.155	58
321.520	61
321.886	63
322.251	65
322.616	67
322.982	70
323.347	73
323.712	76
324.078	80
324.443	83
324.808	87
325.173	90
325.539	94
325.904	97
326.269	101
326.634	105
326.999	109
327.364	112
327.729	116
328.094	120
328.459	124
328.823	128
329.188	131
329.553	136
329.918	140
330.283	144
330.647	148
331.012	152
331.377	156
331.741	161
332.106	164
332.470	168
332.835	173
333.199	177
333.564	182
333.928	186
334.293	190
334.657	195
335.021	200
335.386	204
335.750	209
336.114	214
336.478	219
336.843	224
337.207	228
337.571	233
337.935	237
338.299	242
338.663	247
339.027	252
339.391	256
339.755	261
340.119	266
340.483	271
340.846	276
341.210	280
341.574	284
341.938	289
342.301	293
342.665	298
343.029	302
343.392	305
343.756	310
344.119	314
344.483	318
344.846	322
345.210	326
345.573	330
345.937	334
346.300	337
346.663	341
347.027	344
347.390	348
347.753	352
348.116	355
348.479	358
348.843	362
349.206	365
349.569	368
349.932	371
350.295	374
350.658	377
351.021	380
351.383	383
351.746	386
352.109	388
352.472	391
352.835	394
353.197	396
353.560	398
353.923	401
354.285	404
354.648	406
355.011	408
355.373	410
355.736	413
356.098	415
356.461	417
356.823	419
357.185	421
357.548	423
357.910	425
358.272	428
358.635	430
358.997	433
359.359	434
359.721	436
360.083	439
360.445	441
360.807	443
361.169	445
361.531	447
361.893	448
362.255	450
362.617	452
362.979	454
363.341	456
363.703	458
364.064	461
364.426	463
364.788	465
365.149	467
365.511	469
365.873	471
366.234	472
366.596	473
366.957	475
367.319	476
367.680	477
368.042	478
368.403	479
368.764	480
369.126	481
369.487	482
369.848	483
370.209	483
370.570	484
370.931	483
371.293	484
371.654	484
372.015	485
372.376	485
372.737	485
373.098	486
373.458	487
373.819	487
374.180	488
374.541	489
374.902	491
375.263	493
375.623	495
375.984	496
376.345	498
376.705	500
377.066	501
377.426	502
377.787	504
378.147	506
378.508	508
378.868	509
379.228	511
379.589	512
379.949	514
380.309	515
380.670	516
381.030	517
381.390	518
381.750	520
382.110	521
382.470	521
382.830	522
383.190	522
383.550	523
383.910	525
384.270	527
384.630	529
384.990	531
385.350	533
385.709	535
386.069	536
386.429	538
386.788	539
387.148	540
387.508	542
387.867	544
388.227	547
388.586	549
388.946	552
389.305	556
389.665	560
390.024	564
390.383	567
390.743	570
391.102	573
391.461	575
391.820	577
392.179	579
392.539	581
392.898	582
393.257	584
393.616	587
393.975	590
394.334	594
394.693	599
395.051	605
395.410	609
395.769	613
396.128	616
396.487	619
396.845	621
397.204	622
397.563	623
397.921	624
398.280	625
398.638	627
398.997	628
399.355	630
399.714	632
400.072	634
400.431	637
400.789	639
401.147	642
401.506	645
401.864	647
402.222	648
402.580	649
402.938	650
403.297	650
403.655	650
404.013	650
404.371	652
404.729	653
405.087	654
405.444	656
405.802	659
406.160	661
406.518	663
406.876	665
407.233	668
407.591	669
407.949	671
408.306	673
408.664	675
409.022	676
409.379	679
409.737	681
410.094	684
410.451	686
410.809	689
411.166	693
411.523	696
411.881	699
412.238	702
412.595	705
412.952	708
413.310	710
413.667	712
414.024	715
414.381	717
414.738	720
415.095	723
415.452	727
415.809	730
416.165	733
416.522	736
416.879	741
417.236	746
417.593	752
417.949	759
418.306	768
418.663	777
419.019	787
419.376	797
419.732	807
420.089	815
420.445	823
420.802	832
421.158	840
421.514	847
421.871	854
422.227	859
422.583	865
422.939	870
423.295	876
423.652	881
424.008	886
424.364	890
424.720	893
425.076	896
425.432	899
425.788	901
426.143	905
426.499	910
426.855	915
427.211	921
427.567	927
427.922	932
428.278	935
428.634	938
428.989	942
429.345	946
429.700	951
430.056	957
430.411	963
430.767	970
431.122	977
431.478	984
431.833	989
432.188	995
432.543	999
432.899	1004
433.254	1008
433.609	1009
433.964	1010
434.319	1012
434.674	1013
435.029	1016
435.384	1020
435.739	1025
436.094	1032
436.449	1040
436.804	1050
437.158	1060
437.513	1072
437.868	1085
438.223	1098
438.577	1112
438.932	1127
439.287	1143
439.641	1158
439.996	1174
440.350	1189
440.704	1204
441.059	1220
441.413	1236
441.768	1251
442.122	1266
442.476	1281
442.830	1295
443.185	1309
443.539	1323
443.893	1336
444.247	1347
444.601	1356
444.955	1364
445.309	1368
445.663	1372
446.017	1376
446.371	1378
446.724	1380
447.078	1381
447.432	1382
447.786	1382
448.139	1382
448.493	1380
448.847	1378
449.200	1376
449.554	1373
449.907	1371
450.261	1368
450.614	1366
450.968	1364
451.321	1362
451.674	1361
452.027	1359
452.381	1358
452.734	1359
453.087	1360
453.440	1362
453.793	1365
454.146	1369
454.499	1376
454.852	1385
455.205	1395
455.558	1405
455.911	1416
456.264	1427
456.617	1438
456.970	1447
457.322	1456
457.675	1465
458.028	1472
458.380	1479
458.733	1484
459.086	1490
459.438	1498
459.791	1506
460.143	1516
460.496	1529
460.848	1543
461.200	1559
461.553	1576
461.905	1592
462.257	1605
462.609	1618
462.961	1629
463.314	1639
463.666	1648
464.018	1654
464.370	1661
464.722	1670
465.074	1679
465.426	1686
465.777	1693
466.129	1698
466.481	1702
466.833	1703
467.184	1703
467.536	1700
467.888	1696
468.239	1691
468.591	1686
468.943	1682
469.294	1679
469.646	1679
469.997	1683
470.348	1689
470.700	1699
471.051	1712
471.402	1729
471.754	1749
472.105	1771
472.456	1793
472.807	1819
473.158	1848
473.509	1879
473.860	1914
474.211	1948
474.562	1985
474.913	2023
475.264	2063
475.615	2102
475.966	2142
476.316	2180
476.667	2219
477.018	2257
477.368	2297
477.719	2337
478.070	2376
478.420	2411
478.771	2447
479.121	2482
479.472	2517
479.822	2553
480.172	2593
480.523	2639
480.873	2705
481.223	2814
481.573	2979
481.924	3185
482.274	3418
482.624	3663
482.974	3908
483.324	4120
483.674	4282
484.024	4391
484.374	4463
484.724	4508
485.073	4539
485.423	4564
485.773	4587
486.123	4610
486.472	4631
486.822	4651
487.172	4668
487.521	4680
487.871	4683
488.220	4666
488.570	4603
488.919	4485
489.268	4323
489.618	4135
489.967	3932
490.316	3728
490.666	3552
491.015	3425
491.364	3347
491.713	3306
492.062	3291
492.411	3289
492.760	3295
493.109	3302
493.458	3310
493.807	3316
494.156	3321
494.505	3325
494.853	3331
495.202	3339
495.551	3353
495.900	3366
496.248	3381
496.597	3396
496.945	3410
497.294	3423
497.642	3439
497.991	3456
498.339	3478
498.688	3501
499.036	3523
499.384	3543
499.732	3561
500.081	3575
500.429	3586
500.777	3596
501.125	3605
501.473	3615
501.821	3626
502.169	3634
502.517	3642
502.865	3644
503.213	3645
503.561	3644
503.908	3641
504.256	3637
504.604	3631
504.952	3624
505.299	3615
505.647	3603
505.994	3588
506.342	3573
506.689	3557
507.037	3543
507.384	3532
507.732	3523
508.079	3515
508.426	3507
508.774	3501
509.121	3491
509.468	3482
509.815	3471
510.162	3461
510.509	3451
510.856	3440
511.203	3428
511.550	3416
511.897	3406
512.244	3395
512.591	3384
512.938	3373
513.284	3364
513.631	3352
513.978	3340
514.324	3327
514.671	3313
515.018	3299
515.364	3286
515.711	3275
516.057	3262
516.403	3251
516.750	3238
517.096	3224
517.443	3208
517.789	3192
518.135	3177
518.481	3164
518.827	3152
519.173	3138
519.519	3126
519.865	3114
520.211	3104
520.557	3093
520.903	3083
521.249	3075
521.595	3067
521.941	3059
522.287	3051
522.632	3043
522.978	3036
523.324	3030
523.669	3025
524.015	3024
524.360	3027
524.706	3034
525.051	3043
525.397	3056
525.742	3069
526.087	3083
526.433	3096
526.778	3107
527.123	3114
527.468	3121
527.813	3126
528.158	3132
528.504	3139
528.849	3152
529.193	3171
529.538	3192
529.883	3220
530.228	3252
530.573	3288
530.918	3325
531.263	3362
531.607	3396
531.952	3426
532.296	3451
532.641	3470
532.986	3484
533.330	3498
533.675	3512
534.019	3533
534.363	3559
534.708	3592
535.052	3629
535.396	3670
535.741	3708
536.085	3741
536.429	3770
536.773	3794
537.117	3811
537.461	3825
537.805	3838
538.149	3852
538.493	3867
538.837	3884
539.181	3905
539.524	3934
539.868	3968
540.212	4007
540.556	4048
540.899	4091
541.243	4129
541.586	4159
541.930	4182
542.273	4197
542.617	4207
542.960	4218
543.304	4235
543.647	4258
543.990	4290
544.333	4328
544.677	4365
545.020	4401
545.363	4429
545.706	4448
546.049	4461
546.392	4464
546.735	4460
547.078	4453
547.421	4448
547.764	4444
548.106	4442
548.449	4445
548.792	4457
549.135	4476
549.477	4502
549.820	4527
550.162	4547
550.505	4562
550.847	4568
551.190	4568
551.532	4565
551.875	4562
552.217	4563
552.559	4567
552.901	4578
553.244	4594
553.586	4614
553.928	4635
554.270	4652
554.612	4664
554.954	4671
555.296	4674
555.638	4677
555.980	4681
556.322	4689
556.663	4704
557.005	4731
557.347	4770
557.689	4810
558.030	4850
558.372	4887
558.713	4918
559.055	4948
559.396	4975
559.738	5005
560.079	5038
560.421	5079
560.762	5127
561.103	5181
561.444	5243
561.786	5308
562.127	5378
562.468	5454
562.809	5538
563.150	5633
563.491	5736
563.832	5849
564.173	5981
564.514	6133
564.855	6317
565.195	6547
565.536	6824
565.877	7148
566.218	7518
566.558	7937
566.899	8396
567.239	8892
567.580	9410
567.920	9944
568.261	10481
568.601	11030
568.941	11597
569.282	12179
569.622	12782
569.962	13410
570.302	14076
570.643	14762
570.983	15453
571.323	16116
571.663	16751
572.003	17351
572.343	17909
572.683	18427
573.022	18952
573.362	19500
573.702	20068
574.042	20632
574.381	21170
574.721	21680
575.061	22163
575.400	22599
575.740	22980
576.079	23313
576.419	23643
576.758	24023
577.097	24474
577.437	24971
577.776	25503
578.115	26060
578.454	26625
578.794	27142
579.133	27531
579.472	27787
579.811	27919
580.150	27933
580.489	27858
580.828	27739
581.167	27624
581.505	27532
581.844	27451
582.183	27373
582.522	27316
582.860	27276
583.199	27238
583.538	27160
583.876	26998
584.215	26723
584.553	26321
584.891	25803
585.230	25178
585.568	24495
585.906	23803
586.245	23182
586.583	22647
586.921	22201
587.259	21797
587.597	21393
587.935	20975
588.273	20548
588.611	20148
588.949	19789
589.287	19484
589.625	19238
589.963	19040
590.300	18876
590.638	18726
590.976	18561
591.313	18374
591.651	18195
591.989	18038
592.326	17907
592.664	17794
593.001	17699
593.338	17634
593.676	17594
594.013	17587
594.350	17637
594.687	17732
595.025	17840
595.362	17935
595.699	17997
596.036	18030
596.373	18023
596.710	17970
597.047	17887
597.384	17788
597.720	17679
598.057	17590
598.394	17520
598.731	17475
599.067	17459
599.404	17474
599.741	17530
600.077	17615
600.414	17714
600.750	17819
601.087	17895
601.423	17925
601.759	17915
602.096	17872
602.432	17807
602.768	17714
603.104	17592
603.440	17443
603.776	17286
604.112	17117
604.448	16948
604.784	16770
605.120	16581
605.456	16396
605.792	16203
606.128	16003
606.463	15797
606.799	15591
607.135	15401
607.470	15214
607.806	15029
608.142	14848
608.477	14675
608.812	14508
609.148	14339
609.483	14165
609.819	13986
610.154	13815
610.489	13657
610.824	13519
611.159	13400
611.494	13281
611.830	13176
612.165	13072
612.500	12958
612.834	12827
613.169	12677
613.504	12515
613.839	12335
614.174	12133
614.509	11930
614.843	11727
615.178	11535
615.512	11345
615.847	11158
616.182	10973
616.516	10785
616.850	10588
617.185	10383
617.519	10176
617.853	9954
618.188	9724
618.522	9514
618.856	9335
619.190	9178
619.524	9041
619.858	8931
620.192	8844
620.526	8765
620.860	8687
621.194	8613
621.528	8540
621.862	8468
622.195	8381
622.529	8289
622.863	8194
623.196	8099
623.530	8003
623.864	7907
624.197	7809
624.530	7714
624.864	7628
625.197	7540
625.531	7440
625.864	7320
626.197	7192
626.530	7053
626.863	6897
627.196	6729
627.529	6560
627.862	6393
628.195	6227
628.528	6063
628.861	5906
629.194	5765
629.527	5630
629.860	5497
630.192	5366
630.525	5244
630.858	5130
631.190	5021
631.523	4917
631.855	4820
632.188	4735
632.520	4655
632.852	4579
633.185	4502
633.517	4427
633.849	4361
634.182	4299
634.514	4241
634.846	4188
635.178	4141
635.510	4099
635.842	4061
636.174	4024
636.506	3988
636.837	3952
637.169	3917
637.501	3879
637.833	3838
638.164	3793
638.496	3742
638.828	3684
639.159	3620
639.491	3550
639.822	3478
640.154	3406
640.485	3334
640.816	3263
641.147	3193
641.479	3126
641.810	3061
642.141	2996
642.472	2934
642.803	2872
643.134	2814
643.465	2764
643.796	2723
644.127	2695
644.458	2679
644.789	2678
645.119	2692
645.450	2716
645.781	2743
646.111	2769
646.442	2793
646.773	2811
647.103	2826
647.433	2838
647.764	2851
648.094	2868
648.425	2890
648.755	2917
649.085	2949
649.415	2983
649.745	3017
650.075	3053
650.405	3093
650.735	3180
651.065	3816
651.395	5785
651.725	9022
652.055	12648
652.385	16269
652.715	19889
653.044	23512
653.374	27140
653.704	30774
654.033	33992
654.363	35988
654.692	37315
655.022	38179
655.351	38745
655.680	39096
656.010	39288
656.339	39374
656.668	39397
656.997	39386
657.326	39351
657.655	39254
657.984	38596
658.313	36596
658.642	33315
658.971	29634
659.300	25954
659.629	22274
659.958	18595
660.286	14916
660.615	11238
660.944	7985
661.272	5959
661.601	4602
661.929	3706
662.258	3103
662.586	2708
662.915	2467
663.243	2327
663.571	2247
663.899	2200
664.228	2170
664.556	2149
664.884	2135
665.212	2124
665.540	2116
665.868	2112
666.196	2110
666.524	2109
666.852	2110
667.179	2118
667.507	2133
667.835	2157
668.162	2187
668.490	2225
668.818	2270
669.145	2318
669.473	2365
669.800	2408
670.127	2447
670.455	2479
670.782	2505
671.109	2529
671.436	2549
671.764	2565
672.091	2578
672.418	2590
672.745	2599
673.072	2608
673.399	2620
673.726	2631
674.053	2640
674.379	2643
674.706	2641
675.033	2639
675.359	2635
675.686	2629
676.013	2625
676.339	2627
676.666	2634
676.992	2653
677.318	2679
677.645	2710
677.971	2738
678.297	2764
678.624	2789
678.950	2812
679.276	2834
679.602	2856
679.928	2879
680.254	2907
680.580	2942
680.906	2988
681.232	3045
681.558	3103
681.883	3162
682.209	3216
682.535	3266
682.860	3313
683.186	3351
683.511	3381
683.837	3400
684.162	3415
684.488	3426
684.813	3438
685.138	3449
685.464	3459
685.789	3467
686.114	3476
686.439	3487
686.764	3498
687.089	3507
687.414	3507
687.739	3495
688.064	3473
688.389	3446
688.714	3413
689.039	3378
689.363	3341
689.688	3301
690.013	3262
690.337	3227
690.662	3199
690.986	3173
691.311	3147
691.635	3121
691.959	3096
692.284	3079
692.608	3074
692.932	3079
693.256	3089
693.580	3101
693.904	3116
694.228	3135
694.552	3152
694.876	3160
695.200	3157
695.524	3142
695.848	3122
696.172	3096
696.495	3068
696.819	3041
697.143	3011
697.466	2981
697.790	2956
698.113	2938
698.437	2929
698.760	2927
699.083	2925
699.407	2917
699.730	2901
700.053	2877
700.376	2843
700.699	2797
701.022	2739
701.345	2676
701.668	2617
701.991	2569
702.314	2534
702.637	2518
702.960	2523
703.283	2549
703.605	2594
703.928	2656
704.251	2726
704.573	2796
704.896	2860
705.218	2911
705.540	2952
705.863	2984
706.185	3011
706.507	3034
706.830	3055
707.152	3078
707.474	3102
707.796	3129
708.118	3159
708.440	3187
708.762	3211
709.084	3231
709.406	3242
709.728	3244
710.049	3237
710.371	3223
710.693	3201
711.014	3177
711.336	3153
711.658	3133
711.979	3113
712.301	3096
712.622	3078
712.943	3056
713.265	3030
713.586	3002
713.907	2975
714.228	2953
714.549	2934
714.870	2920
715.191	2914
715.512	2913
715.833	2908
716.154	2900
716.475	2886
716.796	2867
717.117	2840
717.437	2808
717.758	2771
718.078	2734
718.399	2698
718.719	2667
719.040	2639
719.360	2618
719.681	2602
720.001	2592
720.321	2586
720.642	2584
720.962	2585
721.282	2591
721.602	2599
721.922	2609
722.242	2621
722.562	2637
722.882	2657
723.202	2676
723.521	2693
723.841	2711
724.161	2729
724.481	2747
724.800	2767
725.120	2791
725.439	2819
725.759	2852
726.078	2890
726.398	2936
726.717	2992
727.036	3056
727.355	3123
727.675	3189
727.994	3251
728.313	3311
728.632	3363
728.951	3405
729.270	3443
729.589	3477
729.908	3520
730.226	3567
730.545	3621
730.864	3679
731.182	3741
731.501	3804
731.820	3863
732.138	3915
732.457	3960
732.775	4001
733.093	4035
733.412	4054
733.730	4058
734.048	4050
734.367	4032
734.685	4007
735.003	3979
735.321	3954
735.639	3934
735.957	3918
736.275	3903
736.593	3881
736.910	3848
737.228	3801
737.546	3742
737.863	3673
738.181	3597
738.499	3517
738.816	3438
739.134	3361
739.451	3283
739.768	3205
740.086	3129
740.403	3059
740.720	2993
741.038	2932
741.355	2874
741.672	2815
741.989	2755
742.306	2693
742.623	2629
742.940	2567
743.257	2510
743.573	2459
743.890	2419
744.207	2389
744.523	2367
744.840	2353
745.157	2344
745.473	2343
745.790	2351
746.106	2369
746.422	2397
746.739	2431
747.055	2473
747.371	2520
747.687	2569
748.004	2615
748.320	2656
748.636	2693
748.952	2730
749.268	2766
749.584	2801
749.899	2832
750.215	2866
750.531	2903
750.847	2944
751.162	2986
751.478	3025
751.793	3068
752.109	3113
752.424	3161
752.740	3211
753.055	3266
753.370	3334
753.686	3411
754.001	3495
754.316	3583
754.631	3675
754.946	3774
755.261	3878
755.576	3978
755.891	4076
756.206	4172
756.521	4274
756.836	4377
757.150	4477
757.465	4563
757.780	4638
758.094	4702
758.409	4751
758.723	4781
759.038	4795
759.352	4796
759.667	4782
759.981	4759
760.295	4736
760.609	4718
760.923	4706
761.238	4700
761.552	4697
761.866	4691
762.180	4681
762.493	4656
762.807	4608
763.121	4534
763.435	4442
763.749	4339
764.062	4243
764.376	4163
764.689	4108
765.003	4079
765.316	4075
765.630	4089
765.943	4113
766.257	4140
766.570	4163
766.883	4170
767.196	4160
767.509	4134
767.822	4095
768.135	4044
768.448	3989
768.761	3931
769.074	3882
769.387	3843
769.700	3820
770.013	3805
770.325	3794
770.638	3777
770.950	3746
771.263	3696
771.575	3627
771.888	3538
772.200	3435
772.513	3322
772.825	3204
773.137	3084
773.449	2965
773.761	2849
774.074	2742
774.386	2646
774.698	2567
775.010	2502
775.321	2455
775.633	2424
775.945	2407
776.257	2396
776.568	2394
776.880	2402
777.192	2420
777.503	2446
777.815	2479
778.126	2521
778.438	2572
778.749	2627
779.060	2680
779.372	2730
779.683	2779
779.994	2823
780.305	2858
780.616	2881
780.927	2896
781.238	2901
781.549	2895
781.860	2877
782.171	2850
782.481	2822
782.792	2792
783.103	2763
783.413	2731
783.724	2697
784.034	2664
784.345	2635
784.655	2608
784.966	2581
785.276	2552
785.586	2523
785.896	2494
786.207	2464
786.517	2433
786.827	2401
787.137	2372
787.447	2344
787.757	2316
788.066	2290
788.376	2265
788.686	2240
788.996	2214
789.305	2189
789.615	2169
789.925	2158
790.234	2155
790.544	2160
790.853	2170
791.162	2182
791.472	2191
791.781	2196
792.090	2191
792.399	2178
792.708	2158
793.017	2135
793.326	2113
793.635	2092
793.944	2073
794.253	2056
794.562	2045
794.871	2038
795.179	2032
795.488	2026
795.797	2015
796.105	1997
796.414	1966
796.722	1926
797.031	1875
797.339	1813
797.647	1744
797.956	1671
798.264	1603
798.572	1547
798.880	1504
799.188	1471
799.496	1448
799.804	1430
800.112	1417
800.420	1406
800.728	1394
801.035	1380
801.343	1363
801.651	1351
801.958	1347
802.266	1353
802.573	1364
802.881	1378
803.188	1397
803.496	1417
803.803	1437
804.110	1455
804.417	1472
804.724	1486
805.032	1500
805.339	1511
805.646	1518
805.953	1523
806.259	1524
806.566	1522
806.873	1516
807.180	1508
807.486	1500
807.793	1490
808.100	1475
808.406	1451
808.713	1417
809.019	1379
809.326	1340
809.632	1303
809.938	1268
810.244	1237
810.551	1210
810.857	1188
811.163	1168
811.469	1148
811.775	1126
812.081	1103
812.387	1082
812.692	1066
812.998	1052
813.304	1042
813.610	1034
813.915	1027
814.221	1022
814.526	1017
814.832	1013
815.137	1009
815.443	1002
815.748	992
816.053	979
816.358	965
816.664	953
816.969	941
817.274	931
817.579	923
817.884	918
818.189	917
818.493	916
818.798	913
819.103	908
819.408	899
819.712	888
820.017	877
820.321	865
820.626	853
820.930	842
821.235	835
821.539	832
821.843	832
822.148	834
822.452	835
822.756	834
823.060	831
823.364	826
823.668	819
823.972	810
824.276	802
824.580	795
824.883	791
825.187	789
825.491	789
825.795	789
826.098	789
826.402	788
826.705	785
827.008	779
827.312	771
827.615	758
827.918	742
828.222	724
828.525	706
828.828	689
829.131	671
829.434	654
829.737	638
830.040	625
830.343	615
830.645	605
830.948	595
831.251	586
831.553	578
831.856	572
832.159	565
832.461	558
832.764	550
833.066	542
833.368	536
833.671	531
833.973	527
834.275	523
834.577	519
834.879	515
835.181	510
835.483	504
835.785	497
836.087	488
836.389	478
836.690	466
836.992	453
837.294	440
837.595	426
837.897	411
838.198	397
838.500	383
838.801	371
839.103	360
839.404	351
839.705	343
840.006	336
840.307	331
840.608	327
840.910	324
841.210	322
841.511	319
841.812	316
842.113	312
842.414	308
842.715	302
843.015	296
843.316	289
843.616	283
843.917	278
844.217	273
844.518	269
844.818	266
845.118	263
845.419	262
845.719	261
846.019	259
846.319	258
846.619	257
846.919	256
847.219	254
847.519	252
847.819	251
848.118	251
848.418	255
848.718	262
849.017	275
849.317	293
849.616	314
849.916	338
850.215	366
850.515	395
850.814	425
851.113	452
851.412	475
851.712	497
852.011	517
852.310	536
852.609	554
852.908	568
853.206	581
853.505	593
853.804	604
854.103	614
854.401	620
854.700	623
854.999	621
855.297	613
855.595	600
855.894	582
856.192	561
856.491	537
856.789	511
857.087	483
857.385	458
857.683	435
857.981	414
858.279	395
858.577	376
858.875	360
859.173	347
859.471	337
859.768	328
860.066	320
860.363	313
860.661	308
860.959	304
861.256	300
861.553	295
861.851	289
862.148	284
862.445	278
862.742	273
863.039	268
863.337	264
863.634	261
863.931	259
864.227	258
864.524	257
864.821	257
865.118	256
865.415	253
865.711	250
866.008	246
866.304	241
866.601	236
866.897	232
867.194	229
867.490	227
867.786	225
868.082	225
868.379	225
868.675	226
868.971	226
869.267	226
869.563	226
869.859	225
870.154	224
870.450	223
870.746	222
871.042	221
871.337	221
871.633	221
871.928	222
872.224	223
872.519	225
872.815	227
873.110	227
873.405	227
873.700	226
873.995	226
874.291	226
874.586	227
874.881	229
875.175	231
875.470	235
875.765	239
876.060	243
876.355	248
876.649	253
876.944	258
877.238	262
877.533	266
877.827	269
878.122	271
878.416	272
878.710	272
879.005	271
879.299	270
879.593	269
879.887	268
880.181	267
880.475	265
880.769	262
881.063	260
881.356	257
881.650	253
881.944	249
882.238	206
882.531	195
882.825	198
883.118	202
883.412	194
883.705	198
883.998	202
884.291	203
884.585	212
884.878	222
>>>>>>>>>> END of Data <<<<<<<<<<